,c,h,l,o,s,t,v
0,86.7457,87.4957,84.8657,85.5157,ok,1420156800,3462300
1,81.5169,85.6169,80.8569,84.7969,ok,1420416000,6173600
2,79.194,81.584,77.744,80.824,ok,1420502400,8142000
3,78.6956,80.7456,77.7356,80.1956,ok,1420588800,5950300
4,81.705,82.475,78.895,79.545,ok,1420675200,5836500
5,82.2504,82.8204,80.8004,81.8104,ok,1420761600,4036600
6,79.4761,80.3161,78.1661,80.0761,ok,1421020800,4810300
7,79.9934,81.5934,78.9834,79.9034,ok,1421107200,5444200
8,82.6765,83.0265,78.6065,79.0065,ok,1421193600,6698200
9,81.5364,84.5064,81.4564,84.0464,ok,1421280000,4941700
10,85.0982,85.3282,81.3282,81.6482,ok,1421366400,5483500
11,84.1748,84.6248,82.3648,83.9348,ok,1421712000,5969500
12,85.3149,86.1749,84.4549,85.3649,ok,1421798400,4911900
13,85.1453,86.1653,83.3653,86.1653,ok,1421884800,4471600
14,85.5505,87.2805,84.4605,84.8305,ok,1421971200,4433700
15,87.0017,87.0617,84.8217,85.9017,ok,1422230400,3431100
16,87.633,89.043,85.753,86.573,ok,1422316800,5283000
17,83.0158,87.6058,82.6758,87.2458,ok,1422403200,5772900
18,83.779,84.279,81.629,83.989,ok,1422489600,5188700
19,83.8921,84.9321,82.2621,83.0221,ok,1422576000,7469900
20,87.1807,87.2307,84.1907,85.6507,ok,1422835200,5615500
21,90.752,92.322,89.092,89.162,ok,1422921600,8906600
22,89.6966,92.0366,88.0466,88.9066,ok,1423008000,9869100
23,90.6389,91.7389,89.6089,90.1589,ok,1423094400,5596600
24,90.262,91.682,90.042,91.462,ok,1423180800,5297800
25,90.4127,91.6927,90.2427,91.0627,ok,1423440000,4249100
26,89.7626,91.1926,88.3426,91.1526,ok,1423526400,4308300
27,87.8214,88.7114,86.7714,88.4614,ok,1423612800,6332300
28,89.3291,89.7691,87.9991,89.4891,ok,1423699200,3944500
29,91.3268,91.3768,89.6568,90.3468,ok,1423785600,4158500
30,90.9216,91.1016,90.0816,90.5116,ok,1424131200,4234300
31,89.8097,90.9897,88.9997,90.9897,ok,1424217600,4534000
32,88.3868,89.3268,81.1668,81.2668,ok,1424304000,18682400
33,85.8238,88.2038,84.8138,87.8338,ok,1424390400,7937800
34,86.6248,86.7948,83.9448,84.7548,ok,1424649600,5501300
35,86.3232,87.7132,85.9732,87.5632,ok,1424736000,4215000
36,87.6613,87.8813,85.9213,86.1713,ok,1424822400,5787800
37,84.9286,87.0486,84.4086,86.6086,ok,1424908800,5427100
38,84.5423,85.5323,84.1123,85.4523,ok,1424995200,3837600
39,83.9203,84.5803,81.9403,84.5803,ok,1425254400,5347800
40,85.1548,85.8948,83.3848,83.7648,ok,1425340800,4381400
41,85.2678,85.7278,83.3278,84.9778,ok,1425427200,3924800
42,84.4198,85.3498,84.1998,84.6798,ok,1425513600,2688100
43,83.4586,84.8886,83.1186,83.8086,ok,1425600000,4063600
44,82.6577,84.1877,82.5777,83.0177,ok,1425859200,3443600
45,81.216,83.596,81.176,81.906,ok,1425945600,4862400
46,81.5552,82.3752,80.8852,81.4252,ok,1426032000,3973700
47,80.7637,82.2437,80.6737,82.1037,ok,1426118400,3051700
48,80.4621,80.7321,79.1721,80.2721,ok,1426204800,4415600
49,82.8273,82.9573,79.9873,80.0373,ok,1426464000,4953800
50,81.7908,82.9608,81.3908,81.8508,ok,1426550400,3798600
51,85.428,86.138,80.768,80.848,ok,1426636800,5386800
52,84.3632,84.7332,83.1932,84.2332,ok,1426723200,3558700
53,85.4469,86.7069,84.1969,84.5169,ok,1426809600,5980000
54,83.8638,86.2738,83.8638,86.1138,ok,1427068800,3200700
55,83.7131,84.8131,83.5131,84.0731,ok,1427155200,2681200
56,84.7684,85.4584,83.5984,84.4884,ok,1427241600,3664800
57,86.0876,86.6576,84.9776,86.2176,ok,1427328000,4857100
58,85.3338,85.8938,84.9138,85.3938,ok,1427414400,2539100
59,86.8226,87.1826,85.4626,86.3226,ok,1427673600,3478900
60,86.3986,87.1786,85.5386,85.8386,ok,1427760000,3576000
61,85.9557,88.0857,85.7957,86.7757,ok,1427846400,3813800
62,87.3597,87.6197,83.8797,84.9497,ok,1427932800,4596300
63,89.3951,89.9251,87.8251,87.8851,ok,1428278400,4770000
64,88.8297,90.5497,88.6797,89.7597,ok,1428364800,5233200
65,88.613,90.153,88.373,89.583,ok,1428451200,3274400
66,90.1866,90.5466,88.5866,88.5866,ok,1428537600,3408000
67,91.0158,91.0258,89.6758,90.2958,ok,1428624000,2570400
68,89.2255,91.4355,88.7355,91.2855,ok,1428883200,3111400
69,91.0544,91.5444,89.9344,90.2544,ok,1428969600,3204400
70,92.4703,92.8503,90.9403,91.2703,ok,1429056000,5859500
71,92.5081,93.4581,91.6781,92.3381,ok,1429142400,4054400
72,91.7812,92.0212,90.9412,91.5912,ok,1429228800,3201200
73,92.2626,93.5327,91.7027,91.7027,ok,1429488000,3130700
74,91.1771,92.9071,90.9471,92.4171,ok,1429574400,3238300
75,92.2249,93.1249,90.8249,91.4649,ok,1429660800,2897800
76,92.7629,93.743,92.3329,92.473,ok,1429747200,2708400
77,91.2998,92.5498,90.4898,92.4798,ok,1429833600,3139600
78,91.904,92.504,91.104,92.094,ok,1430092800,2980500
79,92.9423,93.2923,92.1223,92.1223,ok,1430179200,3736600
80,94.1506,94.3906,92.2006,92.6306,ok,1430265600,3902600
81,93.4048,94.8948,92.9348,94.4548,ok,1430352000,3462000
82,93.3576,95.4576,92.0676,93.6676,ok,1430438400,3584700
83,93.8202,95.7902,92.9802,93.5402,ok,1430697600,7312700
84,89.242,94.902,89.232,93.402,ok,1430784000,11762000
85,89.7517,91.5317,89.1617,90.8817,ok,1430870400,5163500
86,88.2603,90.8603,87.1803,90.8603,ok,1430956800,5197800
87,88.2603,89.2603,87.3203,89.2403,ok,1431043200,4922300
88,86.4762,89.1062,86.3362,88.9162,ok,1431302400,3952400
89,88.1753,88.3553,86.4753,86.5253,ok,1431388800,3468500
90,86.4668,88.9368,85.8468,88.9068,ok,1431475200,3548300
91,85.6455,86.9955,85.5955,86.9055,ok,1431561600,3582200
92,85.4001,86.1701,84.1801,85.2501,ok,1431648000,3267300
93,86.6555,86.8955,84.7555,85.4155,ok,1431907200,3018000
94,85.2018,86.5518,85.1818,86.4218,ok,1431993600,3588500
95,85.3906,85.6506,84.6906,85.5306,ok,1432080000,3734400
96,86.3629,86.7029,85.5529,86.0429,ok,1432166400,3958000
97,85.2018,86.3318,85.0118,85.3418,ok,1432252800,3055500
98,84.154,84.814,83.554,84.254,ok,1432598400,3920700
99,84.0125,84.9525,83.5225,84.1424,ok,1432684800,3016900
100,84.154,84.364,83.004,83.554,ok,1432771200,3790800
101,83.7198,84.5498,83.2898,84.4498,ok,1432857600,3948900
102,83.7859,84.1459,83.2059,84.0459,ok,1433116800,2886500
103,84.7393,85.3193,83.1793,83.9893,ok,1433203200,3581600
104,84.0219,85.4819,83.9819,84.5619,ok,1433289600,2158400
105,82.4832,84.2332,82.3832,83.3332,ok,1433376000,3774200
106,84.6543,85.6143,81.7943,81.9743,ok,1433462400,4429900
107,84.1163,84.9663,83.6363,84.3763,ok,1433721600,2755700
108,84.0974,86.4874,84.0974,85.0274,ok,1433808000,2661000
109,85.3434,85.6434,84.5934,85.3234,ok,1433894400,2914800
110,85.57,85.97,85.15,85.92,ok,1433980800,2300900
111,84.5127,85.4127,84.1027,85.1427,ok,1434067200,2464100
112,84.2201,84.8601,83.5001,83.5101,ok,1434326400,2795300
113,85.0319,85.3119,83.9819,84.0219,ok,1434412800,2286400
114,84.0313,86.1613,83.4313,85.6913,ok,1434499200,4998100
115,83.8331,85.1531,83.5631,84.7831,ok,1434585600,3602500
116,83.3233,84.1734,83.2934,83.3434,ok,1434672000,4298600
117,83.144,83.734,82.514,83.664,ok,1434931200,2845600
118,83.8142,83.8442,82.6842,83.3042,ok,1435017600,3613300
119,83.3894,84.1194,83.1494,83.5894,ok,1435104000,3785900
120,82.7381,83.3581,82.3881,83.2581,ok,1435190400,3797800
121,83.1251,83.7651,82.1451,82.6651,ok,1435276800,11406600
122,81.4165,83.1065,81.3165,82.1565,ok,1435536000,4022300
123,82.6437,82.9937,81.4337,82.0837,ok,1435622400,3941400
124,80.9634,83.0434,80.0334,83.0434,ok,1435708800,4644500
125,80.869,81.899,80.789,81.149,ok,1435795200,2699900
126,80.3216,81.4116,79.2816,79.7216,ok,1436140800,3513300
127,81.8602,82.2402,78.9702,80.9202,ok,1436227200,5118300
128,79.7552,82.1852,79.2652,81.3652,ok,1436313600,4681200
129,80.5198,82.5698,80.3998,81.2098,ok,1436400000,3784000
130,79.8024,82.0224,79.7124,81.2424,ok,1436486400,2903800
131,79.4909,80.0709,78.7509,79.8109,ok,1436745600,3830200
132,80.4537,80.8637,79.3237,79.4237,ok,1436832000,3276100
133,78.7394,80.7194,78.5394,80.1094,ok,1436918400,3917300
134,77.9355,79.3355,77.8755,79.2755,ok,1437004800,4019300
135,76.1384,77.7884,75.8984,77.6084,ok,1437091200,6069300
136,73.7077,76.0277,73.6977,76.0177,ok,1437350400,7054000
137,73.1402,74.1902,72.7502,73.9002,ok,1437436800,6823700
138,71.9674,73.3674,71.6374,73.0574,ok,1437523200,7205200
139,72.1849,72.6849,71.3349,72.0649,ok,1437609600,6335400
140,71.0877,72.5077,70.5477,72.0277,ok,1437696000,5850200
141,69.2245,70.7645,68.8945,70.1345,ok,1437955200,5621300
142,72.6862,73.3962,69.2362,69.2362,ok,1438041600,7887200
143,73.5279,74.798,72.2879,72.2879,ok,1438128000,6360600
144,74.2846,74.4646,72.5446,73.3946,ok,1438214400,4539800
145,73.0078,74.1278,72.8178,73.8178,ok,1438300800,4190200
146,72.2984,73.4884,71.3084,72.0584,ok,1438560000,5136500
147,72.5821,73.6121,72.1921,72.9221,ok,1438646400,3981900
148,71.9674,74.8274,71.8374,73.9374,ok,1438732800,4896800
149,73.4712,74.1312,71.0912,71.4412,ok,1438819200,6709500
150,69.7636,74.7036,69.0336,71.2536,ok,1438905600,8476100
151,72.1376,72.3476,69.4876,69.5376,ok,1439164800,6935200
152,73.1118,73.2418,69.9918,70.9418,ok,1439251200,5976000
153,75.5993,75.9293,72.1693,72.9893,ok,1439337600,8234000
154,75.3628,76.1828,74.0228,74.9828,ok,1439424000,5889700
155,75.5993,76.5493,74.4693,75.1693,ok,1439510400,3908100
156,75.675,75.825,74.555,75.165,ok,1439769600,3747200
157,76.0533,76.1833,74.9233,75.3533,ok,1439856000,3536700
158,72.8943,75.7043,71.8943,75.6943,ok,1439942400,6122900
159,72.5727,74.2827,72.4527,72.8627,ok,1440028800,6793500
160,70.804,73.374,70.064,72.334,ok,1440115200,7769100
161,65.5074,69.5274,64.3974,66.2474,ok,1440374400,9518800
162,64.6562,68.4062,64.5862,68.3962,ok,1440460800,6720600
163,67.1437,67.1937,64.5537,66.3637,ok,1440547200,6763700
164,71.6836,71.9936,68.7536,68.8836,ok,1440633600,7160700
165,73.1213,75.1513,71.2213,71.3113,ok,1440720000,6962200
166,74.0671,74.9171,70.3271,71.9571,ok,1440979200,6864000
167,71.9011,73.2011,71.0611,71.9011,ok,1441065600,6376900
168,73.4996,73.4996,70.6596,72.8496,ok,1441152000,5356500
169,73.2537,75.9637,72.5937,74.0537,ok,1441238400,6228100
170,72.724,73.274,71.784,72.054,ok,1441324800,4700700
171,73.4523,73.9723,71.2423,73.3723,ok,1441670400,5137600
172,72.7618,75.1818,72.5018,74.5718,ok,1441756800,6445400
173,73.8306,74.0106,71.9006,73.3406,ok,1441843200,4814700
174,72.9699,73.2299,71.6599,72.5699,ok,1441929600,4571800
175,72.2889,73.0089,71.8989,73.0089,ok,1442188800,3705000
176,73.0645,73.6145,72.3745,72.8545,ok,1442275200,3650500
177,75.6088,75.8388,73.1288,73.3488,ok,1442361600,3996000
178,75.3439,76.8639,74.8039,75.7039,ok,1442448000,5499100
179,72.1281,75.0581,71.7981,74.7281,ok,1442534400,6047600
180,72.3741,73.1841,71.7241,72.9041,ok,1442793600,3258700
181,71.1445,72.5845,70.6145,71.3545,ok,1442880000,3433900
182,69.0826,71.9726,68.9126,71.2826,ok,1442966400,3891400
183,69.2907,69.7507,67.5107,68.3207,ok,1443052800,4443600
184,68.8461,70.2661,68.2461,70.1161,ok,1443139200,3894300
185,65.6682,68.4282,65.3382,67.9782,ok,1443398400,4581900
186,66.3303,66.8703,65.3403,66.0603,ok,1443484800,3773600
187,68.8556,68.9956,66.7256,66.9056,ok,1443571200,4809200
188,69.6028,71.6928,69.0128,69.8128,ok,1443657600,5683400
189,72.8848,73.2748,67.4148,68.4948,ok,1443744000,6032600
190,76.2803,77.3303,73.6303,73.7903,ok,1444003200,7429300
191,78.3516,79.2416,76.0616,76.2316,ok,1444089600,6777000
192,79.2312,80.8612,77.6412,79.8312,ok,1444176000,6893100
193,82.3241,82.5541,78.3541,78.5941,ok,1444262400,6795000
194,82.57,83.57,81.37,82.62,ok,1444348800,5802200
195,81.3688,83.3388,80.2688,82.4588,ok,1444608000,4804200
196,80.6595,81.6695,80.1295,80.5095,ok,1444694400,5605900
197,81.292,81.652,80.272,80.502,ok,1444780800,3325400
198,82.5808,82.6008,80.3708,80.7408,ok,1444867200,3609900
199,82.922,83.422,81.982,83.172,ok,1444953600,4128500
200,80.3728,82.0328,79.6728,81.8328,ok,1445212800,4256500
201,80.4296,81.2096,79.5096,80.1296,ok,1445299200,3553400
202,79.3966,80.3166,79.0266,80.0566,ok,1445385600,3005600
203,81.3109,81.6809,79.8809,80.1409,ok,1445472000,2901100
204,80.9603,81.6203,79.8503,80.6203,ok,1445558400,2674900
205,79.0271,80.9271,78.8871,80.7371,ok,1445817600,3496500
206,78.3732,78.6232,75.7232,77.5132,ok,1445904000,5147700
207,80.3538,81.7338,77.9138,78.5438,ok,1445990400,3830000
208,81.0456,81.4256,79.6556,79.8456,ok,1446076800,2984100
209,81.3584,82.1884,79.8784,81.2884,ok,1446163200,3161600
210,81.5668,81.9968,80.2068,80.6368,ok,1446422400,3597500
211,83.8223,84.8923,81.6523,82.2723,ok,1446508800,5513900
212,81.9459,84.4359,81.2259,83.9559,ok,1446595200,3908700
213,81.9459,83.6959,80.9259,81.7559,ok,1446681600,4033800
214,80.8087,84.0287,79.7687,80.9487,ok,1446768000,5272300
215,80.9035,82.7135,80.0235,81.4735,ok,1447027200,3849900
216,82.0502,82.3502,80.1902,80.6902,ok,1447113600,3909700
217,78.9607,83.5407,78.8307,81.9907,ok,1447200000,3545500
218,77.416,78.476,76.656,78.066,ok,1447286400,3436700
219,77.9467,78.6467,76.1967,77.3467,ok,1447372800,3111800
220,80.3538,80.4238,77.5638,78.0038,ok,1447632000,3052700
221,78.6385,79.9685,77.5885,79.9485,ok,1447718400,3290100
222,80.695,80.805,78.495,79.385,ok,1447804800,3200900
223,78.3258,80.3158,77.4158,79.9358,ok,1447891200,2797900
224,78.3068,78.9468,77.6568,78.6768,ok,1447977600,2980700
225,78.25,79.06,77.74,78.04,ok,1448236800,2718700
226,80.6855,81.1955,78.7055,78.8455,ok,1448323200,4420900
227,79.1597,80.2597,78.8297,79.8697,ok,1448409600,3037000
228,77.7287,78.9787,77.6087,78.5887,ok,1448582400,1446600
229,79.065,80.275,77.835,78.045,ok,1448841600,3833500
230,79.6525,79.7325,78.6225,79.0525,ok,1448928000,2584200
231,76.6294,79.8294,76.1794,79.0994,ok,1449014400,4543300
232,76.7526,78.2426,76.0126,77.4026,ok,1449100800,4675000
233,76.2788,76.6288,74.2888,75.0788,ok,1449187200,4754200
234,72.2038,74.4138,70.5638,73.8938,ok,1449446400,6354500
235,73.0756,73.8456,69.8956,70.6856,ok,1449532800,5336800
236,74.2792,76.2992,72.7792,73.3692,ok,1449619200,5377100
237,74.0896,76.0596,73.3096,73.7496,ok,1449705600,5033300
238,70.9718,75.5118,70.8418,73.4018,ok,1449792000,4962000
239,72.8387,73.0087,69.6987,70.3387,ok,1450051200,5854600
240,73.2557,74.6157,72.9357,73.9257,ok,1450137600,5701000
241,71.8342,73.6542,71.7542,73.3242,ok,1450224000,4961300
242,69.465,72.145,68.095,71.635,ok,1450310400,6110000
243,67.6928,70.1328,67.6728,69.4528,ok,1450396800,6633800
244,66.5745,68.1745,65.6245,67.9245,ok,1450656000,5078800
245,66.1575,67.9276,65.9276,66.6776,ok,1450742400,5234600
246,69.8346,69.9046,66.9346,67.5446,ok,1450828800,5352700
247,69.5787,70.1387,68.8087,69.9087,ok,1450915200,1792900
248,66.802,68.292,66.522,68.072,ok,1451260800,3998000
249,67.3706,68.6106,66.8306,68.1606,ok,1451347200,3168400
250,66.9157,67.3957,66.0457,66.1057,ok,1451433600,3354700
251,67.0863,67.8863,66.2963,66.4063,ok,1451520000,3117300
252,66.0343,67.3543,65.1843,67.1544,ok,1451865600,5136700
253,66.4608,66.8708,64.9008,66.3908,ok,1451952000,3665200
254,63.7978,64.9778,63.1778,64.9778,ok,1452038400,6626700
255,62.0351,65.5851,61.7651,62.4951,ok,1452124800,5297900
256,62.092,63.002,61.342,62.432,ok,1452211200,4990100
257,60.3388,62.7288,59.5888,62.5488,ok,1452470400,5356600
258,59.628,61.888,58.058,61.358,ok,1452556800,7124500
259,60.975,61.465,59.395,60.225,ok,1452643200,7745400
260,62.0107,63.3607,60.3607,61.4207,ok,1452729600,7134900
261,59.8347,60.8847,57.8747,58.8747,ok,1452816000,5870600
262,57.9438,60.5938,56.4438,60.1138,ok,1453161600,5477000
263,57.2406,57.8806,54.1506,56.7306,ok,1453248000,10621600
264,60.5759,61.0759,56.2359,57.0659,ok,1453334400,7403900
265,62.7328,64.2028,61.3828,63.1528,ok,1453420800,6827100
266,58.5234,63.0834,58.4434,61.5534,ok,1453680000,4969200
267,62.7423,62.8423,59.0023,59.7123,ok,1453766400,6789000
268,62.7804,64.6404,61.2004,61.8004,ok,1453852800,7071300
269,65.2129,66.3729,63.2329,65.8129,ok,1453939200,6737700
270,67.4839,67.6439,65.4839,65.6339,ok,1454025600,6883200
271,65.65,66.56,64.25,65.86,ok,1454284800,4489100
272,63.8161,66.0261,62.6561,63.6661,ok,1454371200,5463600
273,66.6952,66.7752,62.8252,65.1152,ok,1454457600,5381200
274,65.0324,67.9824,64.7324,67.2624,ok,1454544000,5174300
275,63.7211,64.3411,62.2811,64.3411,ok,1454630400,5514400
276,65.0229,65.3929,61.3429,62.2529,ok,1454889600,6274500
277,62.3243,64.7043,61.0743,63.9443,ok,1454976000,6382800
278,62.5143,63.5043,60.6343,62.1743,ok,1455062400,4302100
279,62.2958,62.7258,59.7958,60.3558,ok,1455148800,5413000
280,64.3292,65.3892,62.6092,63.4492,ok,1455235200,5476800
281,64.5097,65.7097,62.8697,65.3897,ok,1455580800,3747900
282,67.2939,67.4139,64.0739,65.4739,ok,1455667200,6288200
283,66.0016,67.7716,65.8816,67.5316,ok,1455753600,3668100
284,66.2391,66.2591,64.5891,65.1391,ok,1455840000,3575100
285,68.6147,69.1747,66.1147,66.1147,ok,1456099200,4684600
286,64.6333,68.3633,64.2633,68.3033,ok,1456185600,4418700
287,66.0586,66.4786,63.2886,63.7686,ok,1456272000,4151500
288,65.0894,66.8894,63.7594,65.7794,ok,1456358400,5356700
289,64.1392,66.3391,62.3792,64.6392,ok,1456444800,10600800
290,61.5166,64.3366,61.4966,64.1966,ok,1456704000,7950300
291,61.7826,62.2326,59.2926,61.8626,ok,1456790400,7542900
292,63.664,63.784,60.804,61.614,ok,1456876800,5243400
293,65.802,66.222,62.732,63.502,ok,1456963200,6644400
294,67.8545,67.9645,65.1845,66.3545,ok,1457049600,7930800
295,71.7123,71.7723,66.4623,67.3623,ok,1457308800,8446300
296,67.0468,71.3268,66.9668,71.1368,ok,1457395200,6598900
297,68.6621,68.9021,66.2121,67.9921,ok,1457481600,4693500
298,68.6716,69.2617,66.7116,67.5617,ok,1457568000,4557300
299,71.4368,72.1468,69.2468,69.3968,ok,1457654400,4282000
300,71.0567,71.7267,69.5667,69.9867,ok,1457913600,3188400
301,69.9449,70.7049,68.2349,70.1549,ok,1458000000,3910500
302,71.3037,71.5337,68.9537,70.6337,ok,1458086400,4881800
303,72.691,73.641,71.371,71.851,ok,1458172800,4675100
304,71.8644,73.9344,70.8644,73.7344,ok,1458259200,7455600
305,72.1779,72.5379,70.8079,71.2379,ok,1458518400,2899600
306,72.1209,73.4709,71.6009,71.6109,ok,1458604800,2844300
307,70.6386,72.8386,70.1386,71.7486,ok,1458691200,3840700
308,70.6006,71.2106,68.6206,68.7206,ok,1458777600,3621400
309,70.8191,71.0491,69.8091,70.5891,ok,1459123200,2628700
310,71.6933,71.8833,69.3833,69.4133,ok,1459209600,3243000
311,69.9925,72.8325,69.9224,72.7725,ok,1459296000,4136200
312,68.9662,70.8062,68.7562,69.8662,ok,1459382400,5664700
313,68.4531,68.8831,66.8231,67.2631,ok,1459468800,5143400
314,66.8092,69.1292,66.6092,68.9792,ok,1459728000,3452600
315,67.0278,67.8478,66.1478,66.3778,ok,1459814400,3467500
316,67.674,68.1639,66.214,67.1339,ok,1459900800,4159200
317,67.8925,68.5225,66.8325,67.2325,ok,1459987200,3017600
318,69.8119,69.8419,68.7819,69.7119,ok,1460073600,3215900
319,70.325,71.095,70.015,70.195,ok,1460332800,3457500
320,73.6508,73.9708,69.6808,70.6008,ok,1460419200,5528000
321,74.0674,74.4674,72.6074,73.8974,ok,1460505600,4629100
322,74.0959,74.9159,73.2859,74.3159,ok,1460592000,2666700
323,72.0962,73.8062,71.4562,73.8062,ok,1460678400,4868800
324,73.7436,73.9836,69.8736,70.3436,ok,1460937600,3586400
325,75.3529,76.4029,73.9229,74.7429,ok,1461024000,3829900
326,75.5815,76.2715,72.8515,74.3415,ok,1461110400,4066200
327,75.3815,76.5115,74.9315,75.6015,ok,1461196800,3336600
328,77.0575,77.9175,75.6375,75.8075,ok,1461283200,3157300
329,75.9529,76.7129,75.2329,76.5829,ok,1461542400,2828100
330,78.8287,78.9087,76.0187,76.5687,ok,1461628800,3654700
331,80.4761,81.3961,79.0061,79.6561,ok,1461715200,3795100
332,77.9812,80.8412,77.6912,79.9412,ok,1461801600,3266000
333,78.6764,79.2964,77.0864,78.7664,ok,1461888000,4570600
334,78.8287,79.1087,76.7287,78.3787,ok,1462147200,4300700
335,76.7813,78.3813,76.2013,77.5913,ok,1462233600,3808600
336,75.5529,78.2129,75.0229,76.8229,ok,1462320000,3757600
337,77.3813,78.8713,76.2713,76.5613,ok,1462406400,5206800
338,74.9244,77.8944,74.3244,75.0744,ok,1462492800,5070700
339,74.8863,75.0763,73.2863,74.4563,ok,1462752000,3002700
340,75.9243,76.0443,74.9043,74.9643,ok,1462838400,4089700
341,76.4861,77.3761,74.3861,75.5461,ok,1462924800,3192000
342,76.6575,78.0075,75.7075,77.5475,ok,1463011200,2277400
343,74.8959,77.2159,74.8459,76.4559,ok,1463097600,3219100
344,76.8385,77.5585,75.7885,75.7885,ok,1463356800,2992800
345,77.6765,78.5865,76.4965,76.9065,ok,1463443200,3952300
346,76.5719,78.3119,76.0419,77.5219,ok,1463529600,2478500
347,76.2576,76.3676,73.8376,75.3276,ok,1463616000,3798500
348,77.0575,77.4475,75.6775,76.7275,ok,1463702400,3322800
349,77.3908,77.9908,75.8508,75.9208,ok,1463961600,3215300
350,78.5526,79.1426,76.7126,77.8526,ok,1464048000,3312900
351,79.1144,79.4144,78.3244,78.5344,ok,1464134400,2895200
352,78.3716,80.0116,78.2816,79.6216,ok,1464220800,2367300
353,77.6765,78.3665,76.8765,78.0465,ok,1464307200,2100600
354,77.4765,78.5965,77.1965,78.1465,ok,1464652800,3009200
355,76.8956,77.4556,76.1456,76.7956,ok,1464739200,3337100
356,76.648,76.738,75.358,76.118,ok,1464825600,2069800
357,75.9053,76.9953,75.3053,76.4352,ok,1464912000,2134500
358,77.3908,77.5408,76.0908,76.7308,ok,1465171200,2037300
359,81.3427,81.5527,77.8327,77.9127,ok,1465257600,4369500
360,81.2856,82.7956,81.0656,82.5256,ok,1465344000,3796800
361,80.5428,81.4028,79.9628,80.1328,ok,1465430400,3588100
362,77.667,80.447,77.437,79.427,ok,1465516800,2983600
363,77.5051,79.2151,76.6251,77.1051,ok,1465776000,2235300
364,79.0192,79.0892,77.1092,77.2592,ok,1465862400,2335700
365,78.505,79.605,77.565,78.795,ok,1465948800,2150800
366,76.3528,77.5228,75.5028,77.4228,ok,1466035200,3139800
367,77.0289,77.6889,76.4789,77.0889,ok,1466121600,3280800
368,79.2191,79.4191,77.8391,78.3591,ok,1466380800,3215000
369,80.857,81.167,78.777,78.937,ok,1466467200,3539800
370,79.6096,81.0996,79.4396,80.9096,ok,1466553600,2415600
371,80.4666,80.9366,79.9366,80.7266,ok,1466640000,2413200
372,77.1908,79.0108,76.9408,77.7108,ok,1466726400,4942200
373,74.8387,77.0487,74.3587,76.2487,ok,1466985600,4234100
374,77.8479,77.8679,75.9479,76.7479,ok,1467072000,3105700
375,79.4572,80.0272,78.4272,78.8172,ok,1467158400,2870300
376,79.4382,79.9782,78.6582,79.4582,ok,1467244800,3364000
377,80.7332,81.6833,79.3232,79.7332,ok,1467331200,2675400
378,78.8097,80.0797,77.7197,79.1697,ok,1467676800,2704800
379,78.8097,79.1597,77.9097,78.0797,ok,1467763200,2207300
380,77.7146,79.9646,77.2246,79.9346,ok,1467849600,2145800
381,78.6002,79.1302,77.6302,78.9002,ok,1467936000,1979500
382,78.943,79.933,78.643,78.983,ok,1468195200,1689200
383,81.076,81.896,80.076,80.4861,ok,1468281600,2860700
384,79.9955,81.2255,78.7755,80.7455,ok,1468368000,2812000
385,80.7493,81.0493,79.9993,80.9593,ok,1468454400,2018100
386,80.2436,81.0436,79.7836,80.6536,ok,1468540800,2473800
387,79.4325,80.4925,78.9225,80.1025,ok,1468800000,1864800
388,78.278,79.388,78.098,79.108,ok,1468886400,2173800
389,78.3448,79.0948,77.1548,77.7648,ok,1468972800,2156700
390,77.7533,79.7233,77.4632,78.4133,ok,1469059200,1825300
391,77.2666,78.4866,76.4766,78.3366,ok,1469145600,2620100
392,75.1389,76.9489,74.5789,76.7689,ok,1469404800,4280300
393,76.7609,76.7609,74.3509,74.7809,ok,1469491200,2548000
394,76.1217,78.2917,75.9917,77.1017,ok,1469577600,3450200
395,76.2362,77.0462,75.5862,76.0762,ok,1469664000,2537400
396,77.9536,78.1436,75.1136,75.2536,ok,1469750400,2886900
397,75.0912,77.5212,74.6512,77.4312,ok,1470009600,3591800
398,76.2266,76.6966,74.8566,75.7066,ok,1470096000,3039100
399,78.5929,78.6429,75.8929,76.2229,ok,1470182400,3036500
400,80.3771,80.4371,77.7371,78.1671,ok,1470268800,4243000
401,86.0257,86.6357,82.6157,83.0957,ok,1470355200,8928300
402,86.5028,87.8428,86.3128,86.8128,ok,1470614400,4506100
403,86.2356,87.2456,85.7556,87.1456,ok,1470700800,3064200
404,85.3196,86.7696,85.0996,86.7696,ok,1470787200,2664100
405,86.1402,87.0102,84.9402,85.9302,ok,1470873600,3445400
406,87.018,87.238,85.818,86.468,ok,1470960000,1912000
407,86.3978,87.8178,86.3878,87.3578,ok,1471219200,2794100
408,86.1211,86.6611,84.7011,86.0511,ok,1471305600,2463400
409,86.0829,86.5229,85.1629,85.6729,ok,1471392000,3160400
410,87.5237,87.8937,86.0837,86.6137,ok,1471478400,4122200
411,87.5523,87.7323,86.4523,86.9623,ok,1471564800,2338600
412,86.9894,87.6594,86.0894,86.6494,ok,1471824000,2276100
413,87.0276,87.6676,86.5276,86.5476,ok,1471910400,2986400
414,86.5696,87.2396,86.3996,86.6096,ok,1471996800,2329200
415,86.1116,86.7116,85.8616,86.5616,ok,1472083200,1929900
416,86.0448,87.3748,85.7848,86.5948,ok,1472169600,1641100
417,86.9607,87.1507,85.4307,85.8008,ok,1472428800,2226100
418,85.9398,87.5598,85.5098,87.1398,ok,1472515200,1618400
419,84.4323,85.8423,83.9623,85.7023,ok,1472601600,2709100
420,84.4895,84.5795,83.3795,84.2495,ok,1472688000,2420700
421,84.833,85.423,84.613,85.193,ok,1472774400,1938400
422,90.4816,90.8516,85.7116,85.9016,ok,1473120000,7421600
423,89.9949,90.8349,89.7149,90.4549,ok,1473206400,4271500
424,91.054,91.554,89.784,90.804,ok,1473292800,3697300
425,88.4015,90.6215,88.3715,90.1115,ok,1473379200,3013300
426,88.7164,89.2664,87.0864,87.7864,ok,1473638400,2498800
427,86.2547,87.9847,85.3847,87.4647,ok,1473724800,3985900
428,84.3941,86.7641,84.1141,85.8241,ok,1473811200,3673700
429,86.7795,88.2195,84.3195,84.6795,ok,1473897600,3931800
430,86.7986,87.2886,85.0985,85.3686,ok,1473984000,4559700
431,85.9207,87.7407,85.8907,87.5307,ok,1474243200,3740000
432,86.2547,87.7047,85.8947,86.0147,ok,1474329600,3049400
433,89.2316,89.5016,86.8116,87.2716,ok,1474416000,3188900
434,88.3634,90.7534,88.1834,90.3634,ok,1474502400,3047100
435,85.6345,88.2445,85.2845,88.1345,ok,1474588800,3679800
436,85.167,86.537,84.917,86.127,ok,1474848000,2131500
437,84.499,84.939,83.119,84.0891,ok,1474934400,2939000
438,89.6514,90.2714,84.2614,85.1514,ok,1475020800,4533800
439,90.6915,91.5815,88.7815,89.9215,ok,1475107200,4486500
440,92.2754,92.7654,90.2554,91.1154,ok,1475193600,4006500
441,91.7028,92.3028,90.6528,91.8628,ok,1475452800,2318600
442,90.7773,92.0073,90.1473,91.9573,ok,1475539200,1724700
443,92.9146,93.8546,91.6246,91.9046,ok,1475625600,3284500
444,92.6856,93.6056,91.9356,93.0956,ok,1475712000,1789700
445,92.0177,92.9077,91.6277,92.4577,ok,1475798400,1742900
446,92.8287,93.6387,92.6687,92.8187,ok,1476057600,1963600
447,91.6456,92.6656,91.3156,92.3456,ok,1476144000,2099900
448,91.8841,92.3441,90.7341,91.4641,ok,1476230400,2415800
449,91.2796,91.7096,89.7696,91.2096,ok,1476316800,2252400
450,90.3047,92.0947,89.7347,92.0947,ok,1476403200,2526800
451,89.6356,90.8056,88.9056,90.3156,ok,1476662400,2100100
452,89.0143,91.0443,88.8243,90.8443,ok,1476748800,2735400
453,90.859,91.979,89.799,90.059,ok,1476835200,3163600
454,90.7157,91.3057,89.5757,89.7757,ok,1476921600,2472200
455,89.7312,90.8712,89.4912,90.0412,ok,1477008000,2729600
456,89.4827,90.5327,88.1427,89.8427,ok,1477267200,2569000
457,88.5747,90.0947,88.4747,89.3847,ok,1477353600,1429100
458,88.0681,89.0281,86.3081,87.7781,ok,1477440000,3286400
459,87.6858,88.8358,87.2458,88.4558,ok,1477526400,3581300
460,86.7873,90.0773,86.6673,87.6373,ok,1477612800,3269800
461,86.4241,87.2341,86.1841,86.6641,ok,1477872000,2406900
462,87.1314,88.1914,85.8714,87.2914,ok,1477958400,2496000
463,86.9211,87.7711,84.9211,85.8911,ok,1478044800,3302600
464,88.0107,88.8107,86.5207,86.8107,ok,1478131200,4157900
465,87.7431,91.9431,87.4531,90.8131,ok,1478217600,6775100
466,89.3011,89.4711,88.0811,89.4711,ok,1478476800,2988200
467,89.2342,89.9742,88.4442,88.7742,ok,1478563200,2382200
468,89.3011,90.5411,88.3911,89.2211,ok,1478649600,4685900
469,88.5364,89.6064,87.9664,88.5464,ok,1478736000,2983000
470,87.3703,88.5003,86.0803,88.0303,ok,1478822400,2340300
471,88.5842,88.7042,85.9942,87.0942,ok,1479081600,2467000
472,90.3907,90.8107,88.8707,89.8507,ok,1479168000,8288400
473,91.012,91.812,89.842,90.302,ok,1479254400,4103400
474,88.2592,92.4992,87.9592,92.0192,ok,1479340800,5877700
475,89.0334,90.1634,88.2634,88.6334,ok,1479427200,2755400
476,91.4421,92.7721,90.6321,90.7721,ok,1479686400,4642400
477,91.0598,91.9898,89.2098,91.5798,ok,1479772800,3867800
478,92.7133,93.4133,90.3533,90.5033,ok,1479859200,2675500
479,91.7384,92.5684,90.9484,92.1484,ok,1480032000,1518300
480,89.3393,92.7093,89.1393,92.5093,ok,1480291200,3031200
481,88.3548,89.2948,85.9148,87.5148,ok,1480377600,4010400
482,97.9893,98.5394,92.5593,92.7794,ok,1480464000,10121000
483,100.1208,102.8408,99.2208,101.0808,ok,1480550400,6505300
484,99.1555,100.8855,98.8055,100.2255,ok,1480636800,4078300
485,99.8436,102.1936,99.7036,100.2636,ok,1480896000,5883900
486,99.3753,100.7053,97.9653,98.9253,ok,1480982400,3539700
487,98.9547,100.3947,98.1147,99.3447,ok,1481068800,3777700
488,100.2928,100.6128,97.7228,99.3928,ok,1481155200,6189100
489,101.7457,102.2857,100.6457,100.8857,ok,1481241600,4049600
490,101.1531,104.6931,100.5131,104.4231,ok,1481500800,5758500
491,103.2367,104.3567,101.0267,102.2267,ok,1481587200,3912600
492,99.6047,102.8647,99.4747,102.0847,ok,1481673600,4010300
493,99.3275,100.4575,97.9475,98.4375,ok,1481760000,4646800
494,99.404,99.9939,98.194,99.4939,ok,1481846400,8906300
495,98.9069,99.8269,98.5569,99.6969,ok,1482105600,2238900
496,98.6011,99.7811,98.1511,99.6411,ok,1482192000,2383100
497,98.018,99.328,97.798,99.218,ok,1482278400,2364900
498,98.5724,98.7724,97.3124,98.1124,ok,1482364800,2722400
499,97.521,98.531,97.111,98.191,ok,1482451200,1706200
500,98.0085,98.5885,97.7885,98.2885,ok,1482796800,1410800
501,97.1578,98.3378,96.8578,97.9978,ok,1482883200,1896100
502,96.8042,97.4742,96.0642,97.1242,ok,1482969600,1517700
503,96.6321,97.7121,96.2621,96.6821,ok,1483056000,2178200
504,98.9643,100.0543,97.2543,98.0543,ok,1483401600,4151200
505,99.0407,99.8907,98.3907,99.6707,ok,1483488000,2417900
506,99.576,100.246,98.816,99.026,ok,1483574400,3084800
507,100.5605,101.0605,99.0605,99.9605,ok,1483660800,2418300
508,98.4673,100.0273,98.2673,99.7673,ok,1483920000,3382600
509,98.8305,99.8305,98.3005,98.6605,ok,1484006400,2913800
510,100.2833,100.4033,98.0933,98.9233,ok,1484092800,3542900
511,100.8745,102.0145,100.3445,101.0145,ok,1484179200,4671700
512,100.8936,101.5836,99.7736,100.3436,ok,1484265600,2580500
513,100.9798,102.2598,100.9498,101.4498,ok,1484611200,3881100
514,100.9032,101.2132,100.2332,100.8432,ok,1484697600,2527500
515,100.7021,101.7221,99.9721,101.0121,ok,1484784000,2425800
516,100.9702,102.2902,100.8002,101.7302,ok,1484870400,2488100
517,99.0459,100.6859,98.9259,100.3059,ok,1485129600,3045500
518,99.2566,100.1966,98.4866,100.0666,ok,1485216000,2680500
519,99.4672,99.9572,98.8072,99.1972,ok,1485302400,2798100
520,99.9363,100.8063,99.4463,99.6463,ok,1485388800,2772600
521,98.5098,99.7698,98.3898,99.7698,ok,1485475200,2343600
522,96.8824,98.4424,95.2524,97.8724,ok,1485734400,2975600
523,97.2461,97.2861,95.7661,97.0161,ok,1485820800,2447500
524,96.6909,98.3209,95.7409,97.8809,ok,1485907200,3028500
525,95.4559,97.2259,94.6859,96.8859,ok,1485993600,5064400
526,96.6335,97.8735,94.9035,95.3735,ok,1486080000,3520900
527,95.4464,96.7964,95.1764,96.7464,ok,1486339200,1802400
528,93.0435,95.3535,91.1235,95.1035,ok,1486425600,5158000
529,93.9529,94.3029,91.0929,92.4129,ok,1486512000,3445400
530,95.5517,96.0317,93.8817,93.8817,ok,1486598400,2927000
531,97.1121,97.7021,96.2421,96.9021,ok,1486684800,3089000
532,96.0686,97.0986,95.8586,96.6286,ok,1486944000,1944900
533,96.9111,97.1611,94.7011,96.0111,ok,1487030400,3862500
534,96.4516,97.1716,96.0516,96.6116,ok,1487116800,2094000
535,95.8963,97.2063,95.5663,96.7863,ok,1487203200,3154100
536,94.805,95.795,94.205,95.685,ok,1487289600,3023200
537,95.2262,96.6062,95.1862,96.1662,ok,1487635200,2737200
538,93.3689,95.0389,93.2989,94.5989,ok,1487721600,2596500
539,93.4072,95.0272,92.3872,95.0272,ok,1487808000,3211800
540,92.1914,93.3914,91.5414,92.4114,ok,1487894400,3590300
541,93.7327,94.0527,92.1227,92.6027,ok,1488153600,5156900
542,92.852,95.412,91.152,95.362,ok,1488240000,6369300
543,95.7814,96.1514,93.7414,93.9814,ok,1488326400,3775900
544,94.2688,95.5088,94.0388,94.9788,ok,1488412800,3048900
545,94.3646,95.1046,93.9146,94.2946,ok,1488499200,2075400
546,95.8006,96.1106,93.5306,94.3506,ok,1488758400,3106100
547,95.2836,96.2936,95.1536,96.1536,ok,1488844800,3381800
548,90.7841,95.3141,90.4441,94.7641,ok,1488931200,4829600
549,91.617,91.937,88.977,89.687,ok,1489017600,4991400
550,90.7458,92.4558,89.9658,92.4558,ok,1489104000,3796500
551,90.899,91.299,89.469,90.439,ok,1489363200,4695400
552,90.5544,90.9544,88.8744,89.8944,ok,1489449600,5091800
553,92.919,93.249,90.539,91.399,ok,1489536000,4184400
554,91.7415,93.1615,91.6515,93.0715,ok,1489622400,3182400
555,92.3159,92.8559,91.5359,92.4259,ok,1489708800,6978600
556,92.1148,92.4448,91.0948,91.6448,ok,1489968000,2208400
557,90.4969,92.5569,90.2269,92.4569,ok,1490054400,2840700
558,90.6118,91.2918,89.8918,90.3018,ok,1490140800,2040700
559,90.765,91.395,89.875,90.435,ok,1490227200,2350500
560,90.8129,91.2029,90.3129,90.8929,ok,1490313600,2858400
561,89.396,90.006,89.046,89.366,ok,1490572800,2756900
562,91.2245,91.5745,89.3845,89.4345,ok,1490659200,3341000
563,92.8616,93.4216,90.4316,91.0416,ok,1490745600,3480900
564,93.0243,96.0143,93.0243,94.0443,ok,1490832000,7514700
565,93.3881,94.3381,92.4981,93.0181,ok,1490918400,4001000
566,92.8233,93.6733,91.8433,93.3633,ok,1491177600,2282000
567,94.0583,94.1182,91.8183,93.1783,ok,1491264000,2232100
568,93.4168,96.3668,93.0568,95.2368,ok,1491350400,3829100
569,93.8668,94.6267,93.3767,93.7868,ok,1491436800,1977900
570,93.2062,94.3262,92.8862,94.0762,ok,1491523200,2866600
571,94.3646,95.2246,93.8546,93.9646,ok,1491782400,2902600
572,93.8635,94.5935,92.8935,94.0735,ok,1491868800,1907900
573,93.4895,94.8795,93.1795,93.8195,ok,1491955200,2295100
574,91.7154,93.7954,91.4054,93.3254,ok,1492041600,3235100
575,91.8113,92.2013,91.2713,91.7313,ok,1492387200,2288800
576,90.9387,92.0787,90.4087,91.2187,ok,1492473600,2005700
577,89.4619,91.5919,89.1019,91.1019,ok,1492560000,3109100
578,89.4715,90.2715,89.3615,89.9415,ok,1492646400,2737300
579,89.74,90.41,89.05,89.16,ok,1492732800,2409300
580,89.8934,90.6134,89.4734,90.6134,ok,1492992000,2182200
581,91.3606,91.5206,89.5606,89.8906,ok,1493078400,2273900
582,90.44,92.62,90.34,90.55,ok,1493164800,2132000
583,89.1838,89.8838,87.3438,89.7538,ok,1493251200,3876300
584,88.7043,90.1743,88.6443,90.1743,ok,1493337600,1625300
585,88.2536,88.9336,87.9736,88.7536,ok,1493596800,2680100
586,88.1001,88.6701,87.2801,88.4701,ok,1493683200,3350700
587,87.9947,88.9846,87.3246,87.7646,ok,1493769600,3512200
588,84.9643,87.6043,84.5643,87.4043,ok,1493856000,5457900
589,87.1508,87.3308,85.1408,85.3008,ok,1493942400,4696400
590,87.9275,88.3775,86.4075,86.6275,ok,1494201600,3718300
591,87.8796,88.6796,86.8396,88.5996,ok,1494288000,3591100
592,90.6606,91.8906,88.6906,89.1306,ok,1494374400,5239200
593,90.4112,91.0512,90.1112,90.9512,ok,1494460800,2580800
594,90.814,91.124,89.914,90.234,ok,1494547200,3415700
595,90.8428,92.7628,90.2328,92.4328,ok,1494806400,6294000
596,89.9797,91.2097,89.6697,90.8797,ok,1494892800,2682700
597,89.1358,90.4858,89.0158,90.0158,ok,1494979200,2406900
598,87.9275,89.2575,87.9075,88.4675,ok,1495065600,3795800
599,89.9605,90.5405,88.2205,88.5305,ok,1495152000,3711900
600,89.2893,90.9393,88.9693,90.3093,ok,1495411200,2004600
601,88.733,89.5031,88.173,89.3231,ok,1495497600,2255400
602,88.8673,89.5873,88.5073,88.5673,ok,1495584000,2886800
603,87.285,89.885,86.705,88.545,ok,1495670400,2768700
604,87.4768,87.6668,86.3768,87.5468,ok,1495756800,2001500
605,85.9425,87.1125,85.7525,86.7925,ok,1496102400,3163100
606,86.6041,86.9042,84.6542,85.2841,ok,1496188800,3938800
607,86.6904,87.6704,86.0204,86.9304,ok,1496275200,2829600
608,86.0,86.9,85.26,86.36,ok,1496361600,2680200
609,85.5397,85.9697,84.8597,85.4597,ok,1496620800,2373000
610,87.1028,87.3328,85.0428,85.3728,ok,1496707200,3219500
611,84.5328,87.3228,83.7928,86.6028,ok,1496793600,4531400
612,84.4944,85.1844,84.0044,84.5344,ok,1496880000,3498800
613,86.3836,87.1136,84.3436,84.6336,ok,1496966400,4507800
614,86.1918,88.2918,85.8218,87.5718,ok,1497225600,3812500
615,86.8439,86.9839,85.7939,86.3339,ok,1497312000,2573100
616,85.2808,86.4008,84.1908,86.3808,ok,1497398400,4054900
617,83.4683,85.5783,82.9983,85.2883,ok,1497484800,4362000
618,84.8876,84.9576,83.4376,83.9376,ok,1497571200,4767000
619,84.4561,85.3961,84.3461,84.7561,ok,1497830400,2495400
620,84.2451,84.6851,82.2751,83.1851,ok,1497916800,3772100
621,83.5451,85.595,83.065,84.525,ok,1498003200,4613500
622,84.0917,85.4317,83.0317,83.7417,ok,1498089600,3356600
623,84.1876,84.6276,83.6076,84.0076,ok,1498176000,3733900
624,83.804,84.604,83.234,84.454,ok,1498435200,2547700
625,84.3889,85.2189,84.0689,84.5789,ok,1498521600,3909200
626,85.3671,85.8871,83.8371,84.5271,ok,1498608000,4508200
627,86.3069,87.2169,85.6069,85.7769,ok,1498694400,4079000
628,86.8055,87.5055,85.5355,86.6255,ok,1498780800,4164100
629,88.5796,89.3696,86.7296,87.2096,ok,1499040000,2400000
630,86.5946,88.4846,86.2545,88.1145,ok,1499212800,2720200
631,84.9931,87.2031,84.7731,86.8931,ok,1499299200,3290600
632,84.8109,84.9709,83.4109,84.4409,ok,1499385600,3810300
633,85.9425,86.1025,84.3225,84.4525,ok,1499644800,2064600
634,86.911,87.271,85.201,85.901,ok,1499731200,2517000
635,86.8535,88.5835,86.6935,87.7435,ok,1499817600,3166700
636,88.2057,88.3157,86.7657,86.7657,ok,1499904000,2472100
637,88.2634,88.7534,87.9834,88.3734,ok,1499990400,1773400
638,88.2922,88.5222,87.7022,87.7022,ok,1500249600,4129100
639,88.1,88.85,87.65,88.65,ok,1500336000,2198600
640,90.6076,90.8476,87.8576,87.8576,ok,1500422400,3937500
641,89.9831,92.0631,89.8931,91.3231,ok,1500508800,4078200
642,89.2625,90.1525,88.7325,89.7425,ok,1500595200,2665700
643,89.6468,91.0168,89.2368,89.3568,ok,1500854400,2588900
644,91.1456,91.9256,90.7156,91.0556,ok,1500940800,2811200
645,91.0303,92.3803,90.9303,91.9403,ok,1501027200,2862100
646,92.212,92.222,90.532,90.852,ok,1501113600,2615700
647,91.674,93.154,91.284,92.264,ok,1501200000,2977100
648,91.405,92.165,91.035,91.585,ok,1501459200,2988600
649,90.7517,91.8717,90.3417,91.2017,ok,1501545600,3802000
650,88.6957,89.6557,86.2257,88.9957,ok,1501632000,5358400
651,85.41,89.01,84.27,88.9,ok,1501718400,6296700
652,86.8991,87.6891,85.0091,85.2691,ok,1501804800,3792200
653,86.1497,86.7097,85.3297,86.3697,ok,1502064000,3886500
654,87.5716,88.7716,86.1316,86.2316,ok,1502150400,3829700
655,86.803,88.803,86.723,87.973,ok,1502236800,3289100
656,85.6213,87.4613,85.3913,87.1313,ok,1502323200,3377400
657,85.0545,86.0745,84.4645,85.6745,ok,1502409600,2874200
658,84.5357,85.5857,84.2757,85.4757,ok,1502668800,2482200
659,83.6038,84.4938,82.8338,84.3338,ok,1502755200,4457900
660,81.6439,83.8939,81.5039,83.8939,ok,1502841600,3478000
661,80.1067,81.7567,80.0967,81.5067,ok,1502928000,3438100
662,80.7888,81.2388,79.9888,80.0488,ok,1503014400,2751700
663,80.4045,81.0345,80.1245,80.5245,ok,1503273600,2515500
664,80.9329,81.2229,80.5429,80.6029,ok,1503360000,1946700
665,81.7688,82.3788,80.6188,80.8188,ok,1503446400,2322700
666,81.298,81.818,81.008,81.478,ok,1503532800,2007800
667,81.1923,81.9023,81.1423,81.6923,ok,1503619200,2211300
668,80.1259,81.1459,78.9759,81.0759,ok,1503878400,2377500
669,79.8857,79.9757,78.7257,79.3557,ok,1503964800,2321300
670,80.3853,80.6953,79.0353,79.6353,ok,1504051200,2245700
671,81.6535,81.8435,80.2735,80.6635,ok,1504137600,4803900
672,82.2876,82.4976,81.2275,81.6376,ok,1504224000,2358600
673,82.4989,83.3089,81.8889,82.5489,ok,1504569600,2655100
674,84.4012,84.5212,83.0112,83.2712,ok,1504656000,2600300
675,85.1218,85.2618,83.9218,84.2718,ok,1504742400,2788600
676,83.3732,84.6632,82.6732,84.4632,ok,1504828800,2687200
677,84.478,84.538,83.028,83.658,ok,1505088000,2865300
678,84.9968,85.2768,83.9568,84.3768,ok,1505174400,2922900
679,87.5236,87.5336,85.4936,85.7436,ok,1505260800,3158300
680,88.1769,89.3469,87.5669,87.8969,ok,1505347200,3428400
681,89.5604,89.6304,88.2004,88.7704,ok,1505433600,4057800
682,89.397,89.727,88.727,89.117,ok,1505692800,2388300
683,89.4739,89.9839,89.0539,89.4239,ok,1505779200,2074600
684,90.4827,90.5827,89.1227,89.8827,ok,1505865600,3774300
685,90.2041,90.7541,89.4541,89.9741,ok,1505952000,2678700
686,90.8382,90.9382,89.7382,90.0582,ok,1506038400,2290400
687,92.5098,93.0199,90.9598,91.2198,ok,1506297600,3143400
688,93.0671,93.6971,91.6671,92.1871,ok,1506384000,2951100
689,93.4994,93.6894,92.4594,93.0794,ok,1506470400,2123000
690,93.0191,94.5691,93.009,93.649,ok,1506556800,2983000
691,92.9422,93.6522,92.2522,92.9322,ok,1506643200,2010900
692,93.3649,93.3649,91.0549,91.7049,ok,1506902400,2115200
693,92.7116,93.9216,92.6916,93.1916,ok,1506988800,2134500
694,92.5483,93.1983,92.1983,92.8683,ok,1507075200,1508000
695,92.7596,93.2796,92.3596,92.7096,ok,1507161600,2097600
696,92.4138,92.5638,91.6838,92.0138,ok,1507248000,1587300
697,92.7116,93.2316,92.3216,92.7416,ok,1507507200,1880200
698,92.9806,94.0306,92.9006,93.3006,ok,1507593600,2200900
699,93.1247,93.3147,92.2347,92.9647,ok,1507680000,2156500
700,92.8557,93.0957,91.9257,92.2857,ok,1507766400,2173700
701,92.8269,93.8369,92.5069,93.7069,ok,1507852800,1953600
702,93.5559,93.8259,93.0859,93.4759,ok,1508112000,2074900
703,93.7869,94.1069,92.8969,93.5869,ok,1508198400,1695300
704,93.0266,94.8266,92.9366,93.9066,ok,1508284800,2040400
705,92.1604,93.0904,91.7604,92.0904,ok,1508371200,1875100
706,93.1998,93.3998,91.7798,92.1398,ok,1508457600,2194500
707,93.3249,93.8449,93.0249,93.4249,ok,1508716800,2395800
708,92.8534,94.3434,92.6034,94.0734,ok,1508803200,2190400
709,92.5358,93.2558,92.0558,92.7058,ok,1508889600,1959000
710,93.2768,93.5468,92.0968,92.8068,ok,1508976000,1980200
711,94.7686,94.8586,92.1386,92.5086,ok,1509062400,2911200
712,95.7887,95.9487,94.5387,94.9187,ok,1509321600,3505400
713,96.1159,96.6559,95.3059,95.4959,ok,1509408000,3272500
714,98.445,98.625,92.865,96.945,ok,1509494400,3953400
715,99.0802,99.1202,97.5002,97.5002,ok,1509580800,2970900
716,100.5719,101.1419,99.3819,99.8719,ok,1509667200,4080200
717,102.9394,103.1694,101.0394,101.1294,ok,1509926400,4709600
718,102.1021,103.9621,101.5621,103.3621,ok,1510012800,4021300
719,100.4083,101.8683,99.8783,101.5883,ok,1510099200,3426200
720,100.8414,101.5014,99.6214,99.8914,ok,1510185600,3053100
721,100.6489,101.1889,99.2789,100.5989,ok,1510272000,3383200
722,100.5334,101.0734,99.8134,100.2734,ok,1510531200,1822900
723,98.6182,100.2082,98.5082,99.9982,ok,1510617600,2428400
724,97.5499,98.5199,96.2699,97.3699,ok,1510704000,3357700
725,97.6173,98.3473,96.9973,97.4773,ok,1510790400,2027500
726,97.8194,98.3894,97.2894,97.9394,ok,1510876800,2596800
727,97.6269,98.1869,96.8869,97.5669,ok,1511136000,1659100
728,97.8387,98.7987,97.5186,98.4787,ok,1511222400,4058400
729,97.7713,99.0013,97.7213,98.5913,ok,1511308800,2654800
730,97.8387,98.7287,97.5586,98.2686,ok,1511481600,913500
731,96.0678,98.0378,95.4678,97.8178,ok,1511740800,2947600
732,96.0871,96.4271,95.3571,95.9971,ok,1511827200,2037200
733,96.7223,96.7523,95.4723,95.7822,ok,1511913600,2721600
734,98.4738,98.8838,97.1538,97.1538,ok,1512000000,4183700
735,99.0417,100.5517,97.7917,99.4517,ok,1512086400,3445800
736,97.2516,99.2316,97.1916,98.8916,ok,1512345600,2423500
737,97.1072,97.9772,96.7272,96.8972,ok,1512432000,2046000
738,95.1439,96.7339,94.7739,96.7139,ok,1512518400,2768400
739,95.9716,96.0816,94.7616,95.1416,ok,1512604800,1687600
740,96.6164,96.9664,95.9764,96.5064,ok,1512691200,1512400
741,97.4056,98.5356,96.5956,96.6856,ok,1512950400,1946800
742,96.5105,97.6505,95.6705,97.6005,ok,1513036800,2127600
743,96.1833,96.9633,95.9533,96.7033,ok,1513123200,1426900
744,95.8946,97.0846,95.8046,96.0146,ok,1513209600,2425000
745,94.8456,96.9356,94.7656,96.8356,ok,1513296000,4633000
746,96.1544,96.4144,94.9244,94.9444,ok,1513555200,2670300
747,97.6173,97.9873,95.8673,96.5273,ok,1513641600,2374400
748,99.648,99.928,97.318,98.158,ok,1513728000,2651800
749,102.3524,102.7524,99.2424,99.7324,ok,1513814400,3330300
750,103.0838,103.8538,101.8538,102.6738,ok,1513900800,2028700
751,105.2973,105.5473,102.8873,103.1273,ok,1514246400,2071500
752,104.2868,105.2268,103.6468,104.9868,ok,1514332800,1802000
753,104.3734,104.5534,103.7834,104.4234,ok,1514419200,1250500
754,103.8537,105.0537,103.8237,105.0537,ok,1514505600,1778200
755,105.1915,105.2815,104.1115,104.5615,ok,1514851200,1899800
756,106.7602,107.6602,105.6502,105.9702,ok,1514937600,3068400
757,106.7794,107.0394,105.5794,106.2194,ok,1515024000,2125000
758,107.9536,108.0836,105.9036,106.4436,ok,1515110400,2221200
759,108.4733,108.9833,107.4133,108.2033,ok,1515369600,1934400
760,107.5109,108.9009,107.3409,108.7309,ok,1515456000,1944100
761,107.7996,109.5396,107.6496,107.7296,ok,1515542400,4750900
762,110.8119,111.3919,108.1319,108.4619,ok,1515628800,3828100
763,111.3509,112.1209,110.4409,110.6009,ok,1515715200,2025300
764,109.2859,112.3359,108.9759,111.7159,ok,1516060800,4835600
765,109.4209,110.2409,108.0309,109.6009,ok,1516147200,3324300
766,110.1052,111.0252,108.6852,109.2252,ok,1516233600,4564600
767,110.2305,110.6205,109.3305,109.8105,ok,1516320000,2920600
768,112.5918,112.6318,110.1818,110.3018,ok,1516579200,2233200
769,113.5749,114.3349,112.6149,112.7849,ok,1516665600,3150700
770,114.1821,114.6121,112.9121,113.7021,ok,1516752000,2463900
771,113.199,114.749,112.779,114.669,ok,1516838400,2061200
772,113.4978,113.7978,112.5378,112.7978,ok,1516924800,2170900
773,112.3605,113.9105,112.2005,112.9005,ok,1517184000,1584900
774,111.0015,111.8115,109.7315,111.8115,ok,1517270400,3589100
775,110.8377,111.5677,110.2677,111.1577,ok,1517356800,2409800
776,112.3027,112.3527,110.3627,111.0627,ok,1517443200,2507600
777,108.7462,111.1062,108.3262,110.9262,ok,1517529600,2549400
778,105.5946,109.9146,105.0346,107.7346,ok,1517788800,3175900
779,104.3513,106.9813,102.1713,103.8413,ok,1517875200,4635500
780,101.9514,105.8814,101.9314,104.5914,ok,1517961600,4666000
781,97.3829,102.8429,97.3229,102.3629,ok,1518048000,4675600
782,96.448,98.978,92.918,98.268,ok,1518134400,5335700
783,99.4069,100.2969,97.5969,97.8069,ok,1518393600,3551500
784,98.7612,99.5312,97.9012,98.7812,ok,1518480000,1735300
785,102.8959,103.1959,97.6359,97.7159,ok,1518566400,4089200
786,103.7923,104.1622,101.1123,102.7022,ok,1518652800,3495500
787,103.7441,104.8441,102.7041,103.2441,ok,1518739200,2973500
788,104.0525,105.1225,102.2425,103.8725,ok,1519084800,3381600
789,101.9803,104.9103,101.9503,103.8203,ok,1519171200,4119300
790,103.2139,105.2339,102.0639,102.8239,ok,1519257600,3165900
791,104.891,104.941,103.391,103.791,ok,1519344000,2063900
792,105.5271,106.1971,104.6071,105.5971,ok,1519603200,4474300
793,103.0694,105.6594,102.8694,105.4094,ok,1519689600,3581300
794,97.7492,102.7292,97.6392,97.9592,ok,1519776000,7738700
795,97.5179,98.4479,96.1779,98.1279,ok,1519862400,4604900
796,97.7781,98.5381,95.7281,96.8681,ok,1519948800,4040000
797,98.1251,99.0751,96.7151,97.2251,ok,1520208000,3129500
798,97.354,99.284,97.084,99.054,ok,1520294400,3421300
799,97.2191,97.4491,95.6791,96.3291,ok,1520380800,3331400
800,96.9492,97.9592,96.0192,97.8892,ok,1520467200,2525900
801,99.0792,99.1792,97.5592,97.8592,ok,1520553600,2910200
802,97.007,99.177,96.847,98.857,ok,1520812800,5209100
803,96.4288,98.1488,96.0588,97.7488,ok,1520899200,3210400
804,96.2746,97.2846,96.0246,97.1846,ok,1520985600,2189300
805,95.0794,97.1494,94.6094,96.8194,ok,1521072000,3843000
806,96.8143,97.2243,94.9143,95.2343,ok,1521158400,4950800
807,94.906,96.836,93.876,96.3159,ok,1521417600,2605100
808,97.6624,98.0024,95.5724,95.6824,ok,1521504000,4555100
809,100.9876,102.0376,97.8476,97.9276,ok,1521590400,5288900
810,100.5153,101.3053,99.3853,99.7453,ok,1521676800,6672800
811,102.0285,102.8985,100.8685,100.9185,ok,1521763200,6576400
812,103.6766,103.7566,101.8266,102.9766,ok,1522022400,4818100
813,102.4815,104.0615,101.6415,103.6115,ok,1522108800,5199900
814,100.0623,103.4423,99.5023,102.0423,ok,1522195200,5512400
815,101.4598,102.0498,100.3598,100.8398,ok,1522281600,3393000
816,99.2045,101.4145,96.5145,101.2145,ok,1522627200,3757700
817,101.2671,101.5071,97.9871,99.6771,ok,1522713600,3477100
818,100.3996,100.7896,99.2796,99.7796,ok,1522800000,4241900
819,100.6021,101.6021,100.0021,100.8221,ok,1522886400,3842500
820,98.2407,100.3807,95.1107,100.3807,ok,1522972800,6473900
821,99.6382,101.5782,98.0882,98.7383,ok,1523232000,4634300
822,103.7633,105.1833,101.1033,101.1933,ok,1523318400,5435600
823,105.4404,106.1804,102.9804,103.4704,ok,1523404800,3466500
824,105.9994,106.8594,104.2294,105.4894,ok,1523491200,4378400
825,107.182,107.412,105.782,106.612,ok,1523577600,3338200
826,107.182,107.852,106.862,107.812,ok,1523836800,2745000
827,107.3075,108.0175,106.5175,107.3175,ok,1523923200,3720100
828,108.9488,110.2788,107.6988,108.2088,ok,1524009600,5109500
829,110.0976,110.7676,108.5376,109.4676,ok,1524096000,4963200
830,110.03,110.63,108.72,109.59,ok,1524182400,3112400
831,110.87,110.99,108.84,109.68,ok,1524441600,2146900
832,110.6286,112.4686,109.4086,111.3586,ok,1524528000,3632300
833,111.4106,111.8506,109.0806,109.9406,ok,1524614400,3506900
834,113.5538,113.7338,111.8038,112.3438,ok,1524700800,3439900
835,112.7525,113.7725,112.0925,112.7125,ok,1524787200,1822100
836,114.0848,115.6248,112.2448,112.5048,ok,1525046400,3315500
837,113.4959,113.8859,112.1159,113.5959,ok,1525132800,2364900
838,112.6174,114.5574,112.0874,113.5074,ok,1525219200,4779500
839,111.9995,112.1195,110.0895,111.8895,ok,1525305600,4269500
840,110.6962,112.0162,107.5162,111.0362,ok,1525392000,5725000
841,109.9528,113.1828,109.2628,111.8728,ok,1525651200,5991300
842,111.3044,111.6044,108.2044,109.6744,ok,1525737600,3886200
843,113.718,114.738,111.828,113.088,ok,1525824000,6104700
844,114.8379,115.3479,114.3379,114.6379,ok,1525910400,4093100
845,113.3511,115.9411,112.9511,114.9611,ok,1525996800,2951200
846,114.5772,115.4972,113.9872,114.0072,ok,1526256000,2645100
847,116.0736,116.2536,114.1936,114.3236,ok,1526342400,3191200
848,117.2997,117.6697,115.3797,115.5997,ok,1526428800,2900200
849,121.789,122.089,117.639,117.639,ok,1526515200,5721400
850,121.4414,122.1314,119.9314,121.9314,ok,1526601600,4064400
851,123.044,123.624,121.594,122.474,ok,1526860800,2573300
852,119.4816,123.6816,118.8016,123.0216,ok,1526947200,2397200
853,118.7286,119.9686,117.4286,118.9885,ok,1527033600,4382900
854,115.8323,117.5523,115.5223,117.1023,ok,1527120000,3176200
855,113.689,113.869,111.239,113.369,ok,1527206400,3935600
856,112.1926,113.6026,111.1426,112.0826,ok,1527552000,3255200
857,115.6199,116.0799,113.0199,113.3999,ok,1527638400,2894000
858,113.7373,116.1473,113.6573,114.7773,ok,1527724800,3544200
859,114.2586,114.4686,112.9986,114.3886,ok,1527811200,2919400
860,114.5676,116.9476,113.6876,115.9576,ok,1528070400,3756500
861,112.5498,114.2098,110.7698,113.9898,ok,1528156800,4158700
862,112.125,113.395,110.845,112.285,ok,1528243200,4361100
863,113.8531,115.1931,112.5431,113.3431,ok,1528329600,3737100
864,113.6021,114.6521,112.5821,114.0921,ok,1528416000,2413500
865,113.9304,114.6104,112.4204,113.8804,ok,1528675200,2374900
866,114.3745,115.0145,113.2145,113.8145,ok,1528761600,3396800
867,114.1621,115.6421,113.6821,114.4021,ok,1528848000,2364900
868,113.4669,115.4269,113.3469,115.2869,ok,1528934400,2856600
869,110.2328,113.1528,109.9828,112.9628,ok,1529020800,5028600
870,112.5884,113.8384,109.9684,110.3684,ok,1529280000,3180900
871,113.0325,113.7225,110.0525,110.9725,ok,1529366400,2448000
872,115.3013,115.6913,113.2713,114.1213,ok,1529452800,2383600
873,112.5691,114.3591,111.9791,114.3591,ok,1529539200,3003600
874,114.4131,116.8531,114.1031,115.9531,ok,1529625600,3173100
875,112.7912,114.9112,111.8712,114.8012,ok,1529884800,1946300
876,115.5426,116.3226,112.9026,112.9026,ok,1529971200,2472600
877,119.6457,120.4957,116.5257,117.3457,ok,1530057600,4708800
878,119.2306,121.2306,118.2406,119.9006,ok,1530144000,2679500
879,120.1284,122.0184,118.9884,119.1284,ok,1530230400,3020200
880,118.1686,119.6286,116.8786,119.5786,ok,1530489600,2310800
881,118.1976,121.1676,117.7776,119.7876,ok,1530576000,1382800
882,118.9603,120.7803,118.4502,119.3903,ok,1530748800,2483900
883,120.0512,120.6512,117.7112,117.8812,ok,1530835200,1443700
884,121.7697,122.0997,120.1497,120.6397,ok,1531094400,1671900
885,122.5806,123.5706,121.6706,122.8806,ok,1531180800,1996200
886,120.3505,122.5105,119.3205,121.7505,ok,1531267200,1963800
887,119.8485,121.3785,118.8085,120.6185,ok,1531353600,1971200
888,121.6055,122.6555,119.7755,120.0355,ok,1531440000,1820000
889,120.4792,121.3092,118.7692,120.6392,ok,1531699200,3210200
890,120.1988,120.8688,117.9888,120.0788,ok,1531785600,3869200
891,119.4833,120.1133,117.0633,119.2433,ok,1531872000,3280200
892,118.3327,119.5228,118.1328,118.6827,ok,1531958400,2889300
893,118.2941,119.2541,117.3841,118.6241,ok,1532044800,1540000
894,118.7872,119.3872,118.2172,119.0872,ok,1532304000,1746300
895,121.4557,122.9557,118.8157,119.5257,ok,1532390400,2850900
896,124.1242,124.4142,121.0642,121.3742,ok,1532476800,2602300
897,124.5883,125.4783,124.0883,124.6683,ok,1532563200,2860300
898,124.8686,126.2087,123.4787,124.0387,ok,1532649600,2423600
899,125.5938,127.2938,125.2238,126.1438,ok,1532908800,2053300
900,124.6656,127.1256,124.0456,126.0156,ok,1532995200,2467900
901,121.4073,124.3873,120.7573,123.4073,ok,1533081600,3525500
902,121.7554,122.1354,119.3354,120.3854,ok,1533168000,3510600
903,118.3521,120.9521,116.7821,118.6921,ok,1533254400,4117700
904,119.7927,120.9927,117.8927,119.0727,ok,1533513600,2396000
905,120.3051,122.1651,120.1851,120.8751,ok,1533600000,1774000
906,118.7001,120.3101,117.4301,119.2301,ok,1533686400,3146000
907,118.2554,119.8454,117.8254,119.1454,ok,1533772800,1874800
908,118.7001,118.8201,117.3001,118.1301,ok,1533859200,2268000
909,117.4723,119.4723,117.1123,118.7623,ok,1534118400,1581900
910,118.9902,119.4902,117.9602,118.8202,ok,1534204800,1469900
911,111.6132,117.9032,110.8831,117.6432,ok,1534291200,4184000
912,112.0676,113.2276,111.8276,112.2676,ok,1534377600,3702300
913,110.9653,112.9454,110.2454,112.7054,ok,1534464000,4492900
914,110.9653,111.9353,110.8253,111.4154,ok,1534723200,4020600
915,111.6615,112.7915,111.4615,112.0915,ok,1534809600,2548800
916,113.4308,114.0308,112.3508,112.3508,ok,1534896000,2104200
917,112.5413,112.9413,111.8813,112.8513,ok,1534982400,2074800
918,113.5662,115.0962,113.4562,113.7462,ok,1535068800,2147100
919,114.7167,115.0367,113.3367,113.6567,ok,1535328000,1816500
920,114.0593,115.8193,113.8593,114.7193,ok,1535414400,1970700
921,114.8424,115.5624,114.1124,115.1024,ok,1535500800,2070900
922,114.9681,115.5281,114.1981,114.1981,ok,1535587200,2096800
923,114.3106,114.8906,113.7506,114.6506,ok,1535673600,2020100
924,113.7789,115.4489,112.8489,115.1389,ok,1536019200,1703100
925,113.9819,114.3519,112.3119,112.9019,ok,1536105600,2081600
926,111.6712,114.3012,111.3812,113.9512,ok,1536192000,1982400
927,110.6753,111.5253,109.9053,111.1853,ok,1536278400,3288600
928,110.5303,111.7303,110.4103,111.2103,ok,1536537600,1778700
929,112.3673,113.3173,110.2273,110.5373,ok,1536624000,2370900
930,113.0634,115.2134,113.0034,113.4134,ok,1536710400,2236000
931,112.754,113.264,111.164,112.934,ok,1536796800,2336000
932,113.9142,114.6242,112.6642,112.6642,ok,1536883200,1536600
933,113.6435,114.8535,113.1735,114.4235,ok,1537142400,2537200
934,115.4902,116.3402,114.5002,114.7902,ok,1537228800,1868100
935,116.1863,116.5863,115.1463,115.4663,ok,1537315200,1767300
936,115.2582,117.0382,114.8182,116.4782,ok,1537401600,1997500
937,115.4999,116.6499,114.0799,114.5599,ok,1537488000,4784400
938,119.8797,120.0797,117.0597,117.3097,ok,1537747200,3593400
939,121.475,122.335,120.095,120.415,ok,1537833600,3873600
940,121.156,122.226,120.856,121.296,ok,1537920000,3106200
941,122.7899,123.4399,121.5099,122.3599,ok,1538006400,2925500
942,123.341,124.861,122.321,122.321,ok,1538092800,2724600
943,125.1974,125.5174,123.4874,123.6374,ok,1538352000,2024600
944,125.6905,125.7505,124.4305,125.4405,ok,1538438400,3278200
945,126.0579,126.2179,124.9279,125.8479,ok,1538524800,3172400
946,125.9128,126.1829,124.8129,125.6029,ok,1538611200,3223200
947,126.7057,126.7557,125.2557,125.9957,ok,1538697600,2244000
948,125.5261,127.0361,124.9261,125.6761,ok,1538956800,2115500
949,127.9626,129.1426,125.7126,125.8326,ok,1539043200,2453900
950,122.2775,127.8075,122.1575,127.8075,ok,1539129600,3450700
951,117.5883,121.4483,116.7883,121.2583,ok,1539216000,4761000
952,118.1297,119.7297,116.3297,119.5697,ok,1539302400,2955300
953,118.5068,119.4968,117.8868,118.8868,ok,1539561600,2277500
954,118.4196,119.6396,118.2196,119.0196,ok,1539648000,2426900
955,116.3662,118.8162,114.7162,118.4362,ok,1539734400,2576200
956,114.8261,115.5261,113.8261,114.8261,ok,1539820800,2096900
957,113.9738,116.9538,113.3838,114.8938,ok,1539907200,3547500
958,112.5984,114.6884,111.7484,114.4484,ok,1540166400,1593500
959,107.6295,110.8895,106.0395,110.6795,ok,1540252800,5023700
960,102.806,108.616,102.666,108.446,ok,1540339200,5540900
961,103.7552,105.4952,102.9952,104.5052,ok,1540425600,2926600
962,103.2128,104.0228,100.1428,102.2428,ok,1540512000,4332300
963,98.8348,103.7948,97.4248,103.7448,ok,1540771200,4307400
964,102.1957,102.8457,97.7157,98.3757,ok,1540857600,4274200
965,102.0311,105.4111,101.7611,103.3711,ok,1540944000,4010900
966,103.5324,103.9424,100.4924,102.6224,ok,1541030400,3771700
967,99.135,103.275,97.625,102.935,ok,1541116800,6607500
968,103.0094,103.7694,100.6994,101.1994,ok,1541376000,5029700
969,103.9586,104.1686,102.0686,103.6886,ok,1541462400,4336700
970,105.7214,106.7714,103.9314,105.8214,ok,1541548800,3424400
971,101.5565,105.6565,101.4265,105.4365,ok,1541635200,4150100
972,102.1957,102.9057,99.1857,99.7757,ok,1541721600,3486000
973,98.0696,103.7696,97.8496,103.6596,ok,1541980800,3267000
974,95.4253,99.3153,94.9853,98.1253,ok,1542067200,5175700
975,94.9895,98.0195,94.1595,97.6695,ok,1542153600,4669900
976,98.3989,98.7689,93.6189,94.7189,ok,1542240000,4217600
977,101.8955,102.2855,99.3955,99.6955,ok,1542326400,6065000
978,102.3895,102.8095,100.2895,100.6695,ok,1542585600,4309300
979,99.1447,100.7547,98.1547,100.2347,ok,1542672000,5704300
980,102.6703,104.2403,99.9003,99.9603,ok,1542758400,5253400
981,97.5368,99.0468,96.2168,98.4668,ok,1542931200,3373700
982,99.319,99.509,97.809,98.479,ok,1543190400,3664200
983,98.7476,99.8576,97.5576,99.0576,ok,1543276800,3554900
984,100.5104,100.8004,98.3204,98.7304,ok,1543363200,3580800
985,102.157,103.277,100.277,100.657,ok,1543449600,2661900
986,100.0648,101.4349,99.6449,101.1449,ok,1543536000,5268900
987,104.7141,104.9841,102.7641,103.7141,ok,1543795200,4061400
988,100.801,105.511,100.381,105.051,ok,1543881600,3153900
989,98.9219,99.0819,96.3519,98.2419,ok,1544054400,5046200
990,100.3554,104.3854,100.1554,101.5054,ok,1544140800,5226600
991,98.5151,100.0651,96.0151,98.8551,ok,1544400000,3368700
992,98.8638,101.1438,98.4838,100.3638,ok,1544486400,3713800
993,100.6654,103.3354,100.5654,100.9754,ok,1544572800,3443300
994,99.5999,101.0699,98.2299,99.9899,ok,1544659200,2685200
995,96.9363,99.8063,95.9163,99.1363,ok,1544745600,3088500
996,93.1879,97.2479,92.4379,96.5179,ok,1545004800,4816100
997,91.057,94.007,90.757,93.417,ok,1545091200,4658700
998,90.0593,94.2193,89.3793,92.0393,ok,1545177600,4046700
999,86.9211,90.5311,86.2011,88.7111,ok,1545264000,5743800
1000,84.519,87.749,84.079,86.699,ok,1545350400,7468800
1001,80.2572,84.1272,80.1772,83.6272,ok,1545609600,2773400
1002,86.1947,86.2347,79.2447,81.0347,ok,1545782400,4488200
1003,86.001,86.001,82.261,84.311,ok,1545868800,4305200
1004,84.7708,86.5808,83.4008,86.4908,ok,1545955200,3325200
1005,84.4706,86.1606,83.6306,85.4706,ok,1546214400,3571100
1006,87.7638,88.4138,82.3538,82.8138,ok,1546387200,3863000
1007,87.1439,88.3939,85.4339,87.7739,ok,1546473600,2961700
1008,90.9698,91.3498,88.1298,88.7498,ok,1546560000,3874200
1009,91.5413,93.4413,89.2513,91.5213,ok,1546819200,4453100
1010,92.5195,93.1096,91.3395,92.6596,ok,1546905600,3437800
1011,96.0743,96.3943,92.9943,93.6643,ok,1546992000,4739600
1012,96.0065,96.2065,94.1665,94.9065,ok,1547078400,3480400
1013,93.8272,94.9672,92.9172,94.8172,ok,1547164800,3206100
1014,95.4156,95.9156,92.1856,92.5656,ok,1547424000,3504800
1015,95.4931,96.8431,94.9031,95.8731,ok,1547510400,2452700
1016,95.7843,96.5343,94.5543,95.6643,ok,1547596800,2800500
1017,96.1532,96.4532,94.2132,95.4632,ok,1547683200,2670800
1018,98.0947,98.4147,96.1547,97.3447,ok,1547769600,3299500
1019,94.0273,97.2273,93.7973,96.9273,ok,1548115200,4390200
1020,93.7458,95.5957,93.3057,94.8258,ok,1548201600,2679100
1021,94.3962,95.2062,92.9462,93.6762,ok,1548288000,3128900
1022,96.2018,97.4018,95.1518,95.2918,ok,1548374400,2417700
1023,95.231,95.381,93.621,94.561,ok,1548633600,2953000
1024,95.9785,96.8585,95.1985,95.7085,ok,1548720000,2873300
1025,96.5415,96.9915,95.4615,96.7815,ok,1548806400,3000600
1026,96.2989,97.9489,95.6889,97.0389,ok,1548892800,2500700
1027,95.9591,97.5991,95.6591,96.9791,ok,1548979200,2614700
1028,96.4736,96.4936,93.8036,94.8436,ok,1549238400,1788400
1029,95.4737,96.7737,94.9937,96.3537,ok,1549324800,1978000
1030,93.3672,94.7972,93.2472,94.6772,ok,1549411200,2723700
1031,90.2705,93.0505,89.0105,92.7405,ok,1549497600,3459000
1032,89.7948,90.5648,87.2348,89.9648,ok,1549584000,3073000
1033,91.4548,91.5948,88.8548,88.8748,ok,1549843200,2625700
1034,92.8332,94.3232,92.4032,92.9832,ok,1549929600,3072400
1035,93.9205,94.9605,92.9105,93.3205,ok,1550016000,3469200
1036,94.1244,94.9944,93.4144,93.4944,ok,1550102400,2654700
1037,97.3181,97.3281,94.9781,95.2881,ok,1550188800,3038600
1038,96.7939,97.3639,95.4939,96.0839,ok,1550534400,2791500
1039,95.8911,96.9211,95.5311,96.6911,ok,1550620800,3456300
1040,92.5614,95.8814,91.7814,95.5514,ok,1550707200,3836800
1041,92.7362,94.3262,92.3262,93.6362,ok,1550793600,4163500
1042,91.979,92.939,91.399,92.359,ok,1551052800,6090800
1043,91.1636,92.4236,90.2236,92.2436,ok,1551139200,5777600
1044,92.2605,95.6205,91.2105,92.7605,ok,1551225600,6452100
1045,91.2509,93.4809,90.2209,92.6209,ok,1551312000,5204700
1046,93.6002,94.1902,91.5702,91.8202,ok,1551398400,5033900
1047,93.9787,94.7987,92.2887,93.8787,ok,1551657600,3729100
1048,92.7071,94.5071,92.4771,94.2471,ok,1551744000,3337000
1049,89.2512,92.2912,88.8712,92.2312,ok,1551830400,5079200
1050,88.6784,89.4484,87.9084,89.3984,ok,1551916800,3731300
1051,83.912,87.172,83.662,86.792,ok,1552003200,6761000
1052,83.7373,85.3473,83.6173,84.2473,ok,1552262400,7699100
1053,84.4362,85.0962,83.9262,84.3862,ok,1552348800,8308900
1054,85.9797,86.0797,84.1797,85.4097,ok,1552435200,6656000
1055,87.067,87.427,85.717,85.997,ok,1552521600,4338900
1056,86.2515,87.7615,85.4015,86.5115,ok,1552608000,8939900
1057,89.2317,89.5017,86.1317,86.3317,ok,1552867200,4197000
1058,90.1637,90.4137,89.6237,90.1037,ok,1552953600,7035400
1059,93.0856,93.8056,90.0156,90.2457,ok,1553040000,7928500
1060,94.037,94.397,91.557,92.987,ok,1553126400,5389100
1061,90.9403,93.2103,90.0403,93.0103,ok,1553212800,7873000
1062,90.0666,91.4166,89.2666,90.8366,ok,1553472000,2940500
1063,91.9984,93.2184,91.4984,91.6784,ok,1553558400,2393700
1064,91.8237,92.6837,90.8737,91.5537,ok,1553644800,2761700
1065,92.4547,92.6847,90.9347,91.0247,ok,1553731200,2768000
1066,92.3964,93.7964,92.0664,93.5964,ok,1553817600,2785600
1067,94.1049,94.3149,92.7449,93.3549,ok,1554076800,2633900
1068,93.241,94.961,93.201,94.271,ok,1554163200,2260100
1069,91.183,93.903,91.033,93.903,ok,1554249600,4351500
1070,90.9306,91.7606,90.1806,91.3206,ok,1554336000,5782700
1071,95.7455,95.8755,91.0555,91.5655,ok,1554422400,4505400
1072,96.5707,98.0807,96.0607,96.2107,ok,1554681600,4985900
1073,95.6873,96.7073,94.5073,95.9073,ok,1554768000,4005700
1074,95.8426,97.1626,95.5126,96.4526,ok,1554854400,3066200
1075,95.8426,96.8726,94.7726,95.4926,ok,1554940800,2640900
1076,102.2302,103.4002,98.7702,99.0102,ok,1555027200,7145100
1077,99.341,101.941,98.661,101.651,ok,1555286400,6091000
1078,99.5647,100.0347,98.1947,99.0747,ok,1555372800,2990100
1079,99.0686,101.6786,98.6586,100.4186,ok,1555459200,2445500
1080,101.0434,101.4634,98.6934,99.1234,ok,1555545600,3307000
1081,104.1563,104.3863,101.7263,102.3363,ok,1555891200,3886000
1082,103.6991,104.9891,102.4691,104.0691,ok,1555977600,4242000
1083,101.1115,104.7515,101.0015,104.6715,ok,1556064000,3599200
1084,99.3021,101.3521,99.2421,101.2021,ok,1556150400,4090800
1085,95.2164,99.4764,94.4164,98.8064,ok,1556236800,4380400
1086,94.3603,95.8203,94.0603,95.3603,ok,1556496000,3512000
1087,93.4362,95.7662,92.3562,95.3762,ok,1556582400,3804600
1088,89.3894,93.9994,89.3594,93.3394,ok,1556668800,5186600
1089,86.7434,89.7234,86.6434,88.7034,ok,1556755200,5145900
1090,88.4263,91.1463,87.2563,89.2763,ok,1556841600,6354600
1091,88.7571,89.3871,87.0571,87.4171,ok,1557100800,3705900
1092,89.2824,89.3924,87.2024,87.6524,ok,1557187200,4170900
1093,91.4711,92.1011,88.9611,89.1111,ok,1557273600,3925400
1094,91.6754,92.5654,89.4954,90.1154,ok,1557360000,3395100
1095,92.4147,92.6647,89.9147,91.7747,ok,1557446400,2425700
1096,90.9556,92.7556,90.6656,91.3956,ok,1557705600,4184500
1097,91.7727,92.7627,91.3527,91.3527,ok,1557792000,2482500
1098,91.7922,92.0621,90.6021,90.8222,ok,1557878400,1950500
1099,92.5898,93.6598,92.1998,92.4098,ok,1557964800,2043800
1100,90.4886,92.1386,90.1386,91.7386,ok,1558051200,2701400
1101,91.1307,91.9706,90.2307,90.6607,ok,1558310400,2823000
1102,93.0276,93.3376,91.4876,91.4876,ok,1558396800,2537300
1103,90.3816,92.8516,89.8616,92.4916,ok,1558483200,2869900
1104,86.4321,88.6321,84.8321,88.6321,ok,1558569600,4547200
1105,84.7881,88.1281,84.3381,87.4081,ok,1558656000,3757500
1106,84.7394,86.0094,84.5994,85.3195,ok,1559001600,3148500
1107,84.078,84.288,81.928,83.298,ok,1559088000,3974100
1108,81.6752,84.2052,81.5252,83.9752,ok,1559174400,3010000
1109,79.6518,81.6218,79.6018,80.4718,ok,1559260800,4316600
1110,80.6927,80.7927,79.0627,80.2127,ok,1559520000,3333200
1111,81.9865,82.6065,80.2865,81.1465,ok,1559606400,3586200
1112,79.7977,82.1977,78.1777,81.8677,ok,1559692800,4593300
1113,81.9767,82.4867,80.1367,80.5467,ok,1559779200,3545000
1114,82.2978,82.8378,81.1978,82.1878,ok,1559865600,2462100
1115,82.8814,83.5114,82.5014,82.7614,ok,1560124800,2044100
1116,84.146,85.3361,83.8061,83.8761,ok,1560211200,4030700
1117,82.716,83.826,82.1261,83.646,ok,1560297600,2857600
1118,84.1363,84.6463,83.7563,83.9763,ok,1560384000,4218100
1119,82.8522,85.0122,82.7422,84.2422,ok,1560470400,2759500
1120,83.1441,83.7241,81.9941,82.0841,ok,1560729600,2629200
1121,85.8971,86.6771,84.0171,84.0671,ok,1560816000,3640500
1122,86.2375,86.9675,84.1275,85.3375,ok,1560902400,3318300
1123,88.9613,89.6113,87.9113,87.9113,ok,1560988800,3772800
1124,89.8563,90.5863,88.8563,88.8563,ok,1561075200,4052500
1125,88.0956,90.4856,87.8956,89.3756,ok,1561334400,2311500
1126,87.5897,88.3197,86.6897,87.9697,ok,1561420800,2641900
1127,90.5567,91.8467,88.1867,88.9667,ok,1561507200,3422300
1128,89.6034,91.2834,89.3834,90.3834,ok,1561593600,2112400
1129,90.6248,90.9348,89.1348,89.6848,ok,1561680000,3735900
1130,90.5567,92.7567,89.9167,92.4667,ok,1561939200,2355200
1131,85.1772,90.6072,84.9672,90.2872,ok,1562025600,5193200
1132,84.827,85.717,83.757,85.627,ok,1562112000,2794500
1133,86.1597,86.5897,84.7897,84.9597,ok,1562284800,5390500
1134,87.6967,88.5867,84.7967,85.4967,ok,1562544000,3219400
1135,86.7239,87.8039,86.2339,87.2839,ok,1562630400,2626900
1136,88.1928,89.6328,87.4328,87.5828,ok,1562716800,4298700
1137,88.3679,89.1479,87.6179,88.6779,ok,1562803200,3640300
1138,88.4263,88.9963,87.9463,88.3663,ok,1562889600,2393000
1139,86.3348,88.9448,86.1648,88.7448,ok,1563148800,3432500
1140,84.9075,86.6975,84.1675,86.6975,ok,1563235200,3012000
1141,83.141,85.681,83.061,85.181,ok,1563321600,3693500
1142,83.3753,83.5053,82.4653,82.8953,ok,1563408000,3332100
1143,84.9465,85.3065,82.8065,83.6265,ok,1563494400,3130200
1144,85.1124,86.6724,84.8024,85.2724,ok,1563753600,3331000
1145,85.4833,86.2633,84.3533,85.0333,ok,1563840000,2908200
1146,85.5711,86.6311,85.2311,85.3511,ok,1563926400,1849300
1147,83.4143,86.1243,82.9643,85.9643,ok,1564012800,2945100
1148,82.2627,83.1727,81.4427,82.9927,ok,1564099200,3026100
1149,81.9016,82.3716,79.9916,82.0416,ok,1564358400,3407000
1150,83.9901,84.6601,80.9801,81.5301,ok,1564444800,3707600
1151,83.7852,86.0652,83.1852,83.7952,ok,1564531200,3144300
1152,79.1201,82.3501,77.5001,82.0501,ok,1564617600,8080000
1153,80.4767,85.8567,78.0767,81.0667,ok,1564704000,6795800
1154,77.0999,79.7299,76.8999,78.3499,ok,1564963200,5476400
1155,76.3972,78.0272,74.9872,77.6472,ok,1565049600,4257200
1156,75.6848,76.2348,72.9748,74.7848,ok,1565136000,5249900
1157,78.4272,78.4572,75.6672,76.0672,ok,1565222400,6235200
1158,77.461,78.971,77.351,78.891,ok,1565308800,2787800
1159,76.0459,77.7559,75.9259,76.8759,ok,1565568000,3908600
1160,76.6315,78.0415,74.9415,75.6015,ok,1565654400,4881100
1161,73.2156,75.0756,72.4556,74.6756,ok,1565740800,6971500
1162,73.1376,73.7176,72.1476,73.1076,ok,1565827200,4008300
1163,74.094,74.744,73.004,73.364,ok,1565913600,2540900
1164,75.9385,76.3185,74.2885,75.5485,ok,1566172800,3530000
1165,74.8455,75.5455,74.3555,75.4055,ok,1566259200,3039100
1166,75.3627,76.2727,74.4927,75.7327,ok,1566345600,2886800
1167,73.6939,75.9339,73.6539,75.8039,ok,1566432000,2299800
1168,70.0243,73.1343,69.6343,72.4543,ok,1566518400,5160000
1169,70.5123,71.4823,69.6323,71.0023,ok,1566777600,2688200
1170,69.9365,71.2664,69.1065,71.2065,ok,1566864000,2649300
1171,70.7855,71.7355,69.8755,69.9255,ok,1566950400,3055900
1172,72.6886,74.0486,71.2486,71.3986,ok,1567036800,3726700
1173,72.4056,73.6256,71.5656,72.8056,ok,1567123200,3164000
1174,72.347,72.567,70.607,70.777,ok,1567468800,2467000
1175,73.7524,74.5524,73.1024,73.8824,ok,1567555200,2951100
1176,73.7817,75.5017,73.2917,74.0117,ok,1567641600,4059700
1177,74.6015,74.6915,71.6415,72.8915,ok,1567728000,3794000
1178,78.0759,78.4959,75.1259,75.3259,ok,1567987200,5133600
1179,78.1735,80.4635,77.7935,78.4635,ok,1568073600,4342700
1180,79.0811,80.8011,77.8511,78.9311,ok,1568160000,3585300
1181,77.7636,78.5536,76.0836,77.3036,ok,1568246400,3200200
1182,77.4805,79.1805,76.2105,78.2605,ok,1568332800,4123500
1183,83.5802,84.9402,81.1702,83.9302,ok,1568592000,11888900
1184,79.2665,83.0365,78.8765,82.4465,ok,1568678400,4902200
1185,79.3641,79.4341,77.7241,78.0441,ok,1568764800,3876100
1186,79.6471,80.5071,79.0071,80.4271,ok,1568851200,4099100
1187,79.0518,80.1918,78.1318,80.0418,ok,1568937600,4754700
1188,78.2027,79.0727,77.7827,78.0727,ok,1569196800,3749100
1189,76.6705,77.8805,75.9905,76.8605,ok,1569283200,4323900
1190,74.9235,76.5835,74.2635,75.8835,ok,1569369600,3236200
1191,73.284,74.614,72.624,74.194,ok,1569456000,4100200
1192,73.1766,73.6466,71.6866,72.1966,ok,1569542400,3422300
1193,72.4349,73.0849,71.9949,72.5949,ok,1569801600,3159100
1194,69.8584,73.0684,69.6784,73.0684,ok,1569888000,4155300
1195,68.1212,70.6112,67.7912,69.6512,ok,1569974400,4289200
1196,69.1362,69.3862,67.3962,67.4562,ok,1570060800,3556500
1197,69.2142,69.7142,67.8343,69.0042,ok,1570147200,2525300
1198,68.0822,69.7622,68.0522,69.7222,ok,1570406400,3736000
1199,67.0769,68.0969,66.4569,67.2369,ok,1570492800,5544600
1200,66.9403,68.4303,66.4403,68.0603,ok,1570579200,3575300
1201,67.2526,67.9526,66.4426,67.0326,ok,1570665600,3057700
1202,67.5844,69.1044,67.3844,68.2144,ok,1570752000,5662700
1203,66.5499,66.8799,64.3799,66.4299,ok,1571011200,5351700
1204,67.5844,68.1244,65.6344,65.9344,ok,1571097600,6107900
1205,66.818,68.348,66.798,67.148,ok,1571184000,4342100
1206,65.4362,67.3562,65.0662,67.0362,ok,1571270400,4324000
1207,63.1528,65.6128,63.1528,65.4028,ok,1571356800,6595300
1208,66.3084,66.3784,62.9784,63.0484,ok,1571616000,5603500
1209,68.1803,69.3003,66.0103,66.4803,ok,1571702400,4476400
1210,70.5029,71.3029,67.6229,68.2129,ok,1571788800,5533200
1211,70.5323,71.1223,69.2323,70.8523,ok,1571875200,4249800
1212,71.0321,71.3621,69.7521,70.3821,ok,1571961600,2398600
1213,69.6307,71.9107,69.6007,71.6707,ok,1572220800,3211400
1214,70.3755,70.8455,68.6155,69.2255,ok,1572307200,3939500
1215,68.2293,71.1093,68.0993,70.6193,ok,1572393600,3361100
1216,67.9255,68.3455,66.7255,67.7855,ok,1572480000,5272200
1217,69.7287,69.9587,68.2187,68.6387,ok,1572566400,3033100
1218,72.218,72.768,70.898,70.948,ok,1572825600,6808500
1219,72.5316,73.8816,71.9416,72.9216,ok,1572912000,4412400
1220,69.9933,72.2733,69.2533,72.0633,ok,1572998400,5247500
1221,73.247,74.107,70.377,70.957,ok,1573084800,7641200
1222,73.2078,73.7878,71.6478,72.5078,ok,1573171200,3136400
1223,72.3454,73.1254,71.4454,72.0254,ok,1573430400,2905800
1224,71.826,72.916,71.016,72.636,ok,1573516800,3262000
1225,71.1596,71.4896,69.6496,71.2196,ok,1573603200,3847700
1226,70.9047,72.7947,70.6647,71.4247,ok,1573689600,3425200
1227,72.0122,72.5422,71.0722,71.3422,ok,1573776000,3505300
1228,69.8365,71.5165,69.2765,71.2965,ok,1574035200,2965800
1229,68.9937,69.9837,68.3737,69.9537,ok,1574121600,3763500
1230,70.6205,71.9205,68.8705,69.3005,ok,1574208000,4027600
1231,71.8554,71.9954,69.8354,70.5954,ok,1574294400,4147700
1232,71.532,72.852,71.372,72.052,ok,1574380800,2903300
1233,72.0514,72.1214,70.6014,71.3514,ok,1574640000,3129200
1234,70.4735,72.2435,70.4135,72.0435,ok,1574726400,3320000
1235,70.9047,71.1147,69.8847,70.6247,ok,1574812800,2346500
1236,69.4837,70.4337,69.0437,69.9537,ok,1574985600,1497600
1237,69.3759,71.2059,69.2959,70.2059,ok,1575244800,3938000
1238,67.4061,68.7461,66.7061,68.6361,ok,1575331200,4555500
1239,70.6107,71.1107,68.1907,68.2807,ok,1575417600,5310600
1240,69.1799,71.3999,68.7499,71.1099,ok,1575504000,3480500
1241,72.4826,72.6426,69.2226,69.4326,ok,1575590400,4368000
1242,73.0216,73.4116,71.2916,71.7916,ok,1575849600,3752000
1243,73.345,73.605,72.245,72.555,ok,1575936000,3646900
1244,73.1784,73.5384,72.5584,73.2684,ok,1576022400,3158900
1245,75.1776,75.5876,72.8376,73.1276,ok,1576108800,3754800
1246,73.982,76.142,73.882,75.952,ok,1576195200,2728900
1247,76.3537,76.6037,74.4337,74.6937,ok,1576454400,6744500
1248,77.2357,77.9257,76.4757,76.5457,ok,1576540800,5506500
1249,78.9801,79.7501,77.2001,77.3001,ok,1576627200,7742700
1250,79.627,80.037,78.067,78.547,ok,1576713600,6791700
1251,81.0088,81.9688,79.7488,81.0688,ok,1576800000,9119000
1252,81.7144,81.8344,80.1544,80.6944,ok,1577059200,3159100
1253,82.1358,82.8258,81.8558,82.1258,ok,1577145600,1236200
1254,81.979,83.019,81.799,82.619,ok,1577318400,2588800
1255,81.4792,82.4292,81.2692,82.4092,ok,1577404800,1868300
1256,80.7442,81.8542,80.5842,81.2542,ok,1577664000,2251800
1257,82.0868,82.1068,79.7068,80.1768,ok,1577750400,2238900
1258,82.4592,82.9292,81.8592,82.6392,ok,1577923200,2496400
1259,83.2922,85.1522,82.3622,83.8822,ok,1578009600,3716200
1260,86.6733,87.5233,84.0133,84.1333,ok,1578268800,8485500
1261,87.5063,87.5463,85.4464,86.8463,ok,1578355200,4320000
1262,85.5953,87.7953,85.2253,87.4953,ok,1578441600,5337300
1263,86.4871,86.6071,82.9471,84.7871,ok,1578528000,6908200
1264,84.5467,85.8867,84.4267,85.8267,ok,1578614400,2950600
1265,83.8117,84.2617,82.6317,84.1717,ok,1578873600,3399700
1266,84.6055,84.9355,82.8355,83.6455,ok,1578960000,4281700
1267,85.0073,85.0373,83.5173,83.9473,ok,1579046400,2562500
1268,85.5658,86.6358,85.2158,85.5058,ok,1579132800,5128600
1269,83.8844,85.7144,82.8744,85.6444,ok,1579219200,4542600
1270,82.6356,84.7656,82.6256,83.6956,ok,1579564800,4522700
1271,81.7015,82.7115,81.3915,82.6515,ok,1579651200,4030400
1272,80.4625,80.8725,79.2825,80.7325,ok,1579737600,3369400
1273,78.5156,79.8756,77.6356,79.8656,ok,1579824000,3128800
1274,75.3593,76.9893,75.3293,76.3092,ok,1580083200,2968300
1275,75.7624,76.6424,75.2824,76.1824,ok,1580169600,2794300
1276,73.8843,76.6843,73.7843,76.4143,ok,1580256000,2701000
1277,74.553,74.723,72.323,72.863,ok,1580342400,4535800
1278,71.6916,73.5816,71.2916,73.1016,ok,1580428800,5004100
1279,70.1773,71.8073,70.0773,71.6373,ok,1580688000,3803200
1280,72.3897,73.5697,71.6697,71.6797,ok,1580774400,4725200
1281,75.7624,76.6924,73.9924,74.2124,ok,1580860800,3724800
1282,74.6021,76.1321,73.9521,76.1321,ok,1580947200,2128800
1283,73.1075,74.0775,72.6575,73.6075,ok,1581033600,2257800
1284,72.4684,72.9084,71.8284,72.6684,ok,1581292800,2865400
1285,73.5402,74.1602,73.0602,73.8802,ok,1581379200,2191500
1286,74.1203,75.6503,73.9103,75.3403,ok,1581465600,2860000
1287,74.4153,74.7753,73.4853,73.7353,ok,1581552000,2197600
1288,73.668,74.968,72.588,74.748,ok,1581638400,2087700
1289,73.2845,73.8245,72.2845,73.2845,ok,1581984000,2520800
1290,75.9886,76.3786,73.6386,73.6386,ok,1582070400,2765200
1291,74.7201,76.1001,74.4201,75.5201,ok,1582156800,2447100
1292,72.9699,73.6299,72.4099,73.6299,ok,1582243200,2963700
1293,68.7417,70.1617,68.2317,70.1617,ok,1582502400,3854400
1294,65.8705,69.2005,64.4305,69.0305,ok,1582588800,6558100
1295,62.1439,66.7139,62.0239,66.6639,ok,1582675200,5371300
1296,58.9973,62.5573,57.8473,59.5873,ok,1582761600,7696700
1297,62.2029,62.2029,55.2829,56.2429,ok,1582848000,11081600
1298,61.8095,62.8495,59.1095,62.7595,ok,1583107200,8008500
1299,61.3867,64.3667,59.8467,61.8867,ok,1583193600,6432200
1300,63.0091,63.4291,61.2091,62.5491,ok,1583280000,5455100
1301,60.8361,62.7061,59.6761,60.7461,ok,1583366400,4905100
1302,54.3759,58.9759,52.9459,57.9959,ok,1583452800,9915000
1303,36.9717,39.5517,34.2617,37.5917,ok,1583712000,18938200
1304,40.9048,41.0148,35.1148,39.1848,ok,1583798400,13804500
1305,38.2106,39.3006,36.9106,38.8006,ok,1583884800,13208700
1306,31.9569,35.4069,31.1169,34.6469,ok,1583971200,12384000
1307,34.2185,35.2385,29.6685,34.6685,ok,1584057600,13961100
1308,30.5803,35.5703,27.5903,29.4703,ok,1584316800,10311100
1309,30.3738,32.7238,29.1038,30.8738,ok,1584403200,10122100
1310,29.2627,29.6527,26.5027,27.6927,ok,1584489600,7759600
1311,32.6649,33.9949,29.2049,29.3849,ok,1584576000,9407700
1312,34.3069,36.6569,32.9369,34.1069,ok,1584662400,12411400
1313,33.9628,35.9528,32.5328,34.0228,ok,1584921600,8642100
1314,39.1349,39.3349,35.0549,35.7749,ok,1585008000,10485900
1315,39.0267,40.9067,36.0367,38.4267,ok,1585094400,9492500
1316,38.8694,39.5394,35.4594,35.4594,ok,1585180800,9263100
1317,35.3984,37.7884,34.2784,37.2284,ok,1585267200,10078900
1318,34.3954,34.8854,32.9354,34.4254,ok,1585526400,9148200
1319,35.3197,38.0097,34.5797,36.2997,ok,1585612800,7816000
1320,34.0218,34.8918,32.9718,33.9918,ok,1585699200,6250300
1321,37.66,42.81,35.65,35.99,ok,1585785600,12694000
1322,39.2234,40.6234,37.7634,39.3334,ok,1585872000,13593900
1323,38.7711,40.2811,37.0011,40.0211,ok,1586131200,9030700
1324,40.6393,42.2493,39.9193,41.3093,ok,1586217600,7531800
1325,44.5332,44.6332,41.4132,41.5032,ok,1586304000,7217500
1326,44.071,46.831,41.801,46.501,ok,1586390400,11001900
1327,42.5666,46.2566,42.0166,45.4766,ok,1586736000,5758200
1328,41.5243,42.7743,41.0643,42.1443,ok,1586822400,5410700
1329,39.5748,40.0848,38.4648,39.0548,ok,1586908800,6256000
1330,36.2314,39.3614,36.1114,39.2614,ok,1586995200,6638800
1331,41.5094,41.7994,37.1594,37.2194,ok,1587081600,10886100
1332,40.8447,42.7047,38.5147,38.7047,ok,1587340800,6680800
1333,40.18,41.32,38.95,38.95,ok,1587427200,6313900
1334,42.8091,42.9891,41.2491,42.3491,ok,1587513600,5274100
1335,43.8706,45.7706,43.7306,44.9006,ok,1587600000,7565400
1336,43.0174,44.9874,42.4674,44.6574,ok,1587686400,5192300
1337,44.1881,44.7281,41.6981,42.5081,ok,1587945600,4777200
1338,44.6246,46.4546,44.1446,45.6846,ok,1588032000,4409600
1339,47.3429,47.5229,45.0929,46.8229,ok,1588118400,6661500
1340,47.1346,48.7346,45.4846,47.4246,ok,1588204800,5447800
1341,44.2178,46.6078,43.4878,45.7878,ok,1588291200,5699200
1342,46.3707,46.4307,42.8907,43.1307,ok,1588550400,7710200
1343,45.6861,48.8361,45.3361,48.1361,ok,1588636800,7181600
1344,45.4778,46.7178,45.2378,45.7778,ok,1588723200,3247100
1345,47.9283,49.0283,47.0083,47.1883,ok,1588809600,5907500
1346,51.0435,51.1035,48.0535,48.8935,ok,1588896000,7285800
1347,49.4462,51.5762,49.1062,50.3462,ok,1589155200,5279100
1348,49.3271,50.1471,48.3171,49.6171,ok,1589241600,5286000
1349,47.8192,49.0692,47.1692,49.0692,ok,1589328000,5768000
1350,47.1842,48.5842,45.5342,46.7642,ok,1589414400,5903800
1351,47.3033,48.4333,46.5633,46.7133,ok,1589500800,4004800
1352,52.0257,52.2657,49.5956,50.0857,ok,1589760000,6342000
1353,50.2597,52.3697,50.1797,51.8897,ok,1589846400,3559100
1354,52.234,52.974,51.094,51.234,ok,1589932800,3303600
1355,51.9066,53.1466,51.1966,52.5366,ok,1590019200,3881100
1356,51.8669,51.9669,50.5369,51.7969,ok,1590105600,2500200
1357,51.0336,53.9636,50.8936,53.9536,ok,1590451200,5685300
1358,52.3134,52.3234,49.9134,51.8634,ok,1590537600,3968600
1359,51.232,52.692,50.902,52.202,ok,1590624000,4688700
1360,50.5673,51.0773,49.5273,51.0773,ok,1590710400,6603500
